SpectraSuite Data File
++++++++++++++++++++++++++++++++++++
Date: Wed Jun 16 13:40:44 EEST 2021
User: CanSEE
Dark Spectrum Present: No
Reference Spectrum Present: No
Number of Sampled Component Spectra: 1
Spectrometers: MAYP112785
Integration Time (usec): 100000 (MAYP112785)
Spectra Averaged: 1 (MAYP112785)
Boxcar Smoothing: 0 (MAYP112785)
Correct for Electrical Dark: No (MAYP112785)
Strobe/Lamp Enabled: No (MAYP112785)
Correct for Detector Non-linearity: No (MAYP112785)
Correct for Stray Light: No (MAYP112785)
Number of Pixels in Processed Spectrum: 2068
>>>>>Begin Processed Spectral Data<<<<<
198.35	3432.00
198.82	2469.00
199.30	2568.00
199.77	2550.00
200.24	2647.00
200.71	2652.00
201.18	2653.00
201.65	2678.00
202.13	2668.00
202.60	2662.00
203.07	2654.00
203.54	2668.00
204.01	2663.00
204.48	2675.00
204.96	2651.00
205.43	2657.00
205.90	2666.00
206.37	2667.00
206.84	2662.00
207.31	2652.00
207.78	2645.00
208.26	2660.00
208.73	2663.00
209.20	2677.00
209.67	2663.00
210.14	2664.00
210.61	2658.00
211.08	2648.00
211.56	2669.00
212.03	2661.00
212.50	2664.00
212.97	2660.00
213.44	2651.00
213.91	2656.00
214.38	2663.00
214.85	2663.00
215.33	2647.00
215.80	2655.00
216.27	2667.00
216.74	2654.00
217.21	2662.00
217.68	2656.00
218.15	2658.00
218.62	2670.00
219.09	2665.00
219.57	2667.00
220.04	2667.00
220.51	2650.00
220.98	2668.00
221.45	2666.00
221.92	2659.00
222.39	2662.00
222.86	2674.00
223.33	2650.00
223.80	2665.00
224.27	2671.00
224.74	2668.00
225.22	2663.00
225.69	2651.00
226.16	2684.00
226.63	2663.00
227.10	2678.00
227.57	2659.00
228.04	2666.00
228.51	2664.00
228.98	2678.00
229.45	2664.00
229.92	2661.00
230.39	2666.00
230.86	2653.00
231.33	2662.00
231.80	2670.00
232.27	2674.00
232.75	2666.00
233.22	2645.00
233.69	2656.00
234.16	2663.00
234.63	2681.00
235.10	2647.00
235.57	2645.00
236.04	2658.00
236.51	2661.00
236.98	2651.00
237.45	2669.00
237.92	2656.00
238.39	2658.00
238.86	2671.00
239.33	3236.00
239.80	2650.00
240.27	2681.00
240.74	2669.00
241.21	2680.00
241.68	2660.00
242.15	2663.00
242.62	2664.00
243.09	2661.00
243.56	2681.00
244.03	2667.00
244.50	2669.00
244.97	2663.00
245.44	2774.00
245.91	2673.00
246.38	2653.00
246.85	2667.00
247.32	2666.00
247.79	2676.00
248.26	2681.00
248.73	2656.00
249.20	2664.00
249.67	2656.00
250.14	2665.00
250.61	2670.00
251.08	2662.00
251.55	2663.00
252.02	2662.00
252.49	2645.00
252.96	2669.00
253.43	2656.00
253.90	2665.00
254.37	2680.00
254.84	2662.00
255.31	2659.00
255.77	2670.00
256.24	2653.00
256.71	2661.00
257.18	2679.00
257.65	2648.00
258.12	2676.00
258.59	2660.00
259.06	2668.00
259.53	2651.00
260.00	2668.00
260.47	2673.00
260.94	2673.00
261.41	2669.00
261.88	2669.00
262.35	2654.00
262.81	2662.00
263.28	2660.00
263.75	2675.00
264.22	2669.00
264.69	2695.00
265.16	2657.00
265.63	2684.00
266.10	2666.00
266.57	2648.00
267.04	2672.00
267.51	2667.00
267.97	2670.00
268.44	2658.00
268.91	2660.00
269.38	2669.00
269.85	2657.00
270.32	2653.00
270.79	2670.00
271.26	2669.00
271.73	2664.00
272.19	2663.00
272.66	2649.00
273.13	2669.00
273.60	2648.00
274.07	2661.00
274.54	2687.00
275.01	2664.00
275.48	2658.00
275.94	2652.00
276.41	2670.00
276.88	2655.00
277.35	2657.00
277.82	2651.00
278.29	2663.00
278.76	2658.00
279.22	2661.00
279.69	2666.00
280.16	2698.00
280.63	2653.00
281.10	2664.00
281.57	2658.00
282.04	2661.00
282.50	2659.00
282.97	2659.00
283.44	2661.00
283.91	2664.00
284.38	2664.00
284.85	2665.00
285.31	2659.00
285.78	2667.00
286.25	2654.00
286.72	2664.00
287.19	2658.00
287.65	2664.00
288.12	2671.00
288.59	2670.00
289.06	2662.00
289.53	2669.00
289.99	2667.00
290.46	2666.00
290.93	2675.00
291.40	2657.00
291.87	2660.00
292.33	2667.00
292.80	2662.00
293.27	2673.00
293.74	2663.00
294.21	2664.00
294.67	2657.00
295.14	2667.00
295.61	2648.00
296.08	2681.00
296.54	2656.00
297.01	2679.00
297.48	2696.00
297.95	2653.00
298.42	2674.00
298.88	2659.00
299.35	2668.00
299.82	2668.00
300.29	2653.00
300.75	2662.00
301.22	2651.00
301.69	2663.00
302.16	2663.00
302.62	2674.00
303.09	2661.00
303.56	2683.00
304.03	2665.00
304.49	2674.00
304.96	2662.00
305.43	2655.00
305.90	2672.00
306.36	2672.00
306.83	2661.00
307.30	2659.00
307.76	2677.00
308.23	2667.00
308.70	2660.00
309.17	2656.00
309.63	2658.00
310.10	2668.00
310.57	2660.00
311.03	2666.00
311.50	2670.00
311.97	2670.00
312.44	2669.00
312.90	2664.00
313.37	2669.00
313.84	2676.00
314.30	2650.00
314.77	2663.00
315.24	2659.00
315.70	2673.00
316.17	2648.00
316.64	2678.00
317.10	2674.00
317.57	2670.00
318.04	2657.00
318.50	2653.00
318.97	2664.00
319.44	2657.00
319.90	2660.00
320.37	2671.00
320.84	2661.00
321.30	2667.00
321.77	2648.00
322.24	2671.00
322.70	2670.00
323.17	2652.00
323.64	2659.00
324.10	2661.00
324.57	2665.00
325.04	2666.00
325.50	2675.00
325.97	2665.00
326.44	2680.00
326.90	2670.00
327.37	2656.00
327.84	2666.00
328.30	2651.00
328.77	2659.00
329.23	2673.00
329.70	2670.00
330.17	2674.00
330.63	2662.00
331.10	2664.00
331.56	2665.00
332.03	2651.00
332.50	2660.00
332.96	2663.00
333.43	2663.00
333.90	2661.00
334.36	2665.00
334.83	2669.00
335.29	2681.00
335.76	2673.00
336.22	2660.00
336.69	2681.00
337.16	2655.00
337.62	2674.00
338.09	2659.00
338.55	2665.00
339.02	2661.00
339.49	2659.00
339.95	2680.00
340.42	2656.00
340.88	2662.00
341.35	2668.00
341.81	2671.00
342.28	2677.00
342.75	2665.00
343.21	2673.00
343.68	2663.00
344.14	2668.00
344.61	2666.00
345.07	2670.00
345.54	2664.00
346.00	2666.00
346.47	2663.00
346.93	2662.00
347.40	2666.00
347.87	2670.00
348.33	2665.00
348.80	2660.00
349.26	2665.00
349.73	2694.00
350.19	2656.00
350.66	2686.00
351.12	2665.00
351.59	2676.00
352.05	2679.00
352.52	2663.00
352.98	2663.00
353.45	2654.00
353.91	2660.00
354.38	2664.00
354.84	2660.00
355.31	2667.00
355.77	2697.00
356.24	2659.00
356.70	2684.00
357.17	2660.00
357.63	2662.00
358.10	2681.00
358.56	2687.00
359.03	2656.00
359.49	2699.00
359.96	2653.00
360.42	2678.00
360.89	2656.00
361.35	2678.00
361.82	2640.00
362.28	2663.00
362.75	2660.00
363.21	2704.00
363.67	2693.00
364.14	2658.00
364.60	2665.00
365.07	2657.00
365.53	2655.00
366.00	2655.00
366.46	2676.00
366.93	2661.00
367.39	2672.00
367.86	2652.00
368.32	2661.00
368.78	2669.00
369.25	2673.00
369.71	2659.00
370.18	2663.00
370.64	2663.00
371.11	2667.00
371.57	2663.00
372.03	2661.00
372.50	2668.00
372.96	2686.00
373.43	2647.00
373.89	2653.00
374.35	2652.00
374.82	2652.00
375.28	2664.00
375.75	2647.00
376.21	2671.00
376.67	2684.00
377.14	2676.00
377.60	2666.00
378.07	2658.00
378.53	2667.00
378.99	2660.00
379.46	2658.00
379.92	2671.00
380.39	2668.00
380.85	2664.00
381.31	2660.00
381.78	2672.00
382.24	2671.00
382.70	2669.00
383.17	2649.00
383.63	2662.00
384.09	2683.00
384.56	2657.00
385.02	2677.00
385.48	2666.00
385.95	2653.00
386.41	2669.00
386.88	2654.00
387.34	2667.00
387.80	2654.00
388.27	2673.00
388.73	2662.00
389.19	2725.00
389.66	2669.00
390.12	2658.00
390.58	2665.00
391.05	2649.00
391.51	2666.00
391.97	2665.00
392.43	2678.00
392.90	2674.00
393.36	2658.00
393.82	2667.00
394.29	2692.00
394.75	2672.00
395.21	2661.00
395.68	2665.00
396.14	2659.00
396.60	2664.00
397.07	2660.00
397.53	2648.00
397.99	2680.00
398.45	2662.00
398.92	2675.00
399.38	2660.00
399.84	2637.00
400.31	2667.00
400.77	2653.00
401.23	2644.00
401.69	2679.00
402.16	2669.00
402.62	2665.00
403.08	2683.00
403.54	2674.00
404.01	2677.00
404.47	2659.00
404.93	2663.00
405.39	2672.00
405.86	2667.00
406.32	2663.00
406.78	2661.00
407.24	2667.00
407.71	2657.00
408.17	2667.00
408.63	2665.00
409.09	2727.00
409.56	2677.00
410.02	2674.00
410.48	2673.00
410.94	2673.00
411.40	2668.00
411.87	2649.00
412.33	2645.00
412.79	2655.00
413.25	2661.00
413.71	2677.00
414.18	2659.00
414.64	2688.00
415.10	2670.00
415.56	2668.00
416.02	2666.00
416.49	2671.00
416.95	2660.00
417.41	2673.00
417.87	2674.00
418.33	2673.00
418.80	2649.00
419.26	2663.00
419.72	2664.00
420.18	2668.00
420.64	2669.00
421.10	2659.00
421.57	2660.00
422.03	2663.00
422.49	2659.00
422.95	2656.00
423.41	2672.00
423.87	2669.00
424.34	2657.00
424.80	2672.00
425.26	2663.00
425.72	2660.00
426.18	2658.00
426.64	2660.00
427.10	2670.00
427.57	2673.00
428.03	2663.00
428.49	2678.00
428.95	2676.00
429.41	2683.00
429.87	2669.00
430.33	2667.00
430.79	2667.00
431.26	2657.00
431.72	2681.00
432.18	2650.00
432.64	2674.00
433.10	2655.00
433.56	2661.00
434.02	2670.00
434.48	2652.00
434.94	2660.00
435.40	2656.00
435.87	2661.00
436.33	2652.00
436.79	2678.00
437.25	2664.00
437.71	2678.00
438.17	2669.00
438.63	2661.00
439.09	2664.00
439.55	2667.00
440.01	2671.00
440.47	2665.00
440.93	2673.00
441.39	2699.00
441.85	2672.00
442.32	2667.00
442.78	2669.00
443.24	2648.00
443.70	2655.00
444.16	2663.00
444.62	2661.00
445.08	2748.00
445.54	2657.00
446.00	2660.00
446.46	2673.00
446.92	2657.00
447.38	2670.00
447.84	2675.00
448.30	2653.00
448.76	2646.00
449.22	2644.00
449.68	2678.00
450.14	2664.00
450.60	2669.00
451.06	2673.00
451.52	2650.00
451.98	2670.00
452.44	2668.00
452.90	2666.00
453.36	2671.00
453.82	2664.00
454.28	2665.00
454.74	2674.00
455.20	2688.00
455.66	2674.00
456.12	2647.00
456.58	2693.00
457.04	2668.00
457.50	2669.00
457.96	2671.00
458.42	2668.00
458.88	2685.00
459.34	2661.00
459.80	2667.00
460.26	2658.00
460.72	2667.00
461.18	2662.00
461.64	2680.00
462.10	2647.00
462.55	2671.00
463.01	2654.00
463.47	2651.00
463.93	2669.00
464.39	2644.00
464.85	2659.00
465.31	2652.00
465.77	2663.00
466.23	2681.00
466.69	2659.00
467.15	2665.00
467.61	2665.00
468.07	2664.00
468.52	2666.00
468.98	2663.00
469.44	2666.00
469.90	2676.00
470.36	2672.00
470.82	2667.00
471.28	2676.00
471.74	2658.00
472.20	2651.00
472.66	2658.00
473.11	2669.00
473.57	2670.00
474.03	2662.00
474.49	2667.00
474.95	2685.00
475.41	2662.00
475.87	2664.00
476.33	2663.00
476.78	2662.00
477.24	2658.00
477.70	2680.00
478.16	2666.00
478.62	2674.00
479.08	2660.00
479.54	2684.00
479.99	2665.00
480.45	2675.00
480.91	2658.00
481.37	2660.00
481.83	2658.00
482.29	2655.00
482.74	2663.00
483.20	2656.00
483.66	2665.00
484.12	2669.00
484.58	2661.00
485.04	2684.00
485.49	2658.00
485.95	2666.00
486.41	2672.00
486.87	2669.00
487.33	2685.00
487.78	2666.00
488.24	2668.00
488.70	2683.00
489.16	2684.00
489.62	2664.00
490.07	2666.00
490.53	2663.00
490.99	2667.00
491.45	2665.00
491.90	2676.00
492.36	2681.00
492.82	2677.00
493.28	2650.00
493.74	2661.00
494.19	2658.00
494.65	2667.00
495.11	2681.00
495.57	2666.00
496.02	2670.00
496.48	2661.00
496.94	2664.00
497.40	2664.00
497.85	2685.00
498.31	2655.00
498.77	2667.00
499.23	2657.00
499.68	2679.00
500.14	2659.00
500.60	2669.00
501.06	2662.00
501.51	2678.00
501.97	2678.00
502.43	2671.00
502.88	2665.00
503.34	2700.00
503.80	2663.00
504.26	2668.00
504.71	2670.00
505.17	2669.00
505.63	2670.00
506.08	2673.00
506.54	2659.00
507.00	2673.00
507.45	2662.00
507.91	2663.00
508.37	2679.00
508.82	2650.00
509.28	2675.00
509.74	2677.00
510.19	2671.00
510.65	2688.00
511.11	2661.00
511.56	2675.00
512.02	2669.00
512.48	2673.00
512.93	2662.00
513.39	2668.00
513.85	2668.00
514.30	2666.00
514.76	2684.00
515.22	2663.00
515.67	2673.00
516.13	2673.00
516.59	2662.00
517.04	2657.00
517.50	2672.00
517.95	2665.00
518.41	2673.00
518.87	2663.00
519.32	2657.00
519.78	2666.00
520.24	2667.00
520.69	2668.00
521.15	2666.00
521.60	2668.00
522.06	2658.00
522.52	2668.00
522.97	2666.00
523.43	2676.00
523.88	2659.00
524.34	2666.00
524.80	2673.00
525.25	2663.00
525.71	2679.00
526.16	2672.00
526.62	2655.00
527.07	2656.00
527.53	2675.00
527.99	2661.00
528.44	2674.00
528.90	2669.00
529.35	2669.00
529.81	2659.00
530.26	2675.00
530.72	2663.00
531.17	2647.00
531.63	2665.00
532.09	2663.00
532.54	2663.00
533.00	2648.00
533.45	2671.00
533.91	2687.00
534.36	2671.00
534.82	2669.00
535.27	2670.00
535.73	2655.00
536.18	2661.00
536.64	2676.00
537.09	2665.00
537.55	2655.00
538.00	2664.00
538.46	2655.00
538.91	2657.00
539.37	2666.00
539.82	2644.00
540.28	2670.00
540.73	2661.00
541.19	2673.00
541.64	2667.00
542.10	2650.00
542.55	2675.00
543.01	2648.00
543.46	2675.00
543.92	2661.00
544.37	2659.00
544.83	2668.00
545.28	2738.00
545.74	2650.00
546.19	2678.00
546.64	2670.00
547.10	2670.00
547.55	2649.00
548.01	2659.00
548.46	2662.00
548.92	2656.00
549.37	2669.00
549.83	2675.00
550.28	2681.00
550.73	2679.00
551.19	2675.00
551.64	2671.00
552.10	2671.00
552.55	2651.00
553.00	2658.00
553.46	2667.00
553.91	2651.00
554.37	2680.00
554.82	2660.00
555.28	2661.00
555.73	2662.00
556.18	2673.00
556.64	2670.00
557.09	2667.00
557.54	2663.00
558.00	2665.00
558.45	2664.00
558.91	2666.00
559.36	2669.00
559.81	2673.00
560.27	2674.00
560.72	2661.00
561.17	2669.00
561.63	2669.00
562.08	2670.00
562.54	2658.00
562.99	2683.00
563.44	2663.00
563.90	2668.00
564.35	2658.00
564.80	2679.00
565.26	2658.00
565.71	2670.00
566.16	2652.00
566.62	2668.00
567.07	2706.00
567.52	2666.00
567.98	2678.00
568.43	2679.00
568.88	2665.00
569.34	2670.00
569.79	2669.00
570.24	2656.00
570.69	2675.00
571.15	2675.00
571.60	2687.00
572.05	2667.00
572.51	2672.00
572.96	2667.00
573.41	2664.00
573.86	2673.00
574.32	2689.00
574.77	2682.00
575.22	2667.00
575.68	2665.00
576.13	2668.00
576.58	2661.00
577.03	2672.00
577.49	2656.00
577.94	2655.00
578.39	2671.00
578.84	2649.00
579.30	2661.00
579.75	2665.00
580.20	2677.00
580.65	2648.00
581.11	2658.00
581.56	2667.00
582.01	2669.00
582.46	2648.00
582.92	2671.00
583.37	2693.00
583.82	2655.00
584.27	2662.00
584.72	2675.00
585.18	2661.00
585.63	2671.00
586.08	2653.00
586.53	2659.00
586.98	2670.00
587.44	2666.00
587.89	2678.00
588.34	2666.00
588.79	2671.00
589.24	2669.00
589.70	2680.00
590.15	2676.00
590.60	2662.00
591.05	2667.00
591.50	2666.00
591.96	2672.00
592.41	2664.00
592.86	2671.00
593.31	2670.00
593.76	2653.00
594.21	2682.00
594.66	2669.00
595.12	2667.00
595.57	2670.00
596.02	2662.00
596.47	2676.00
596.92	2682.00
597.37	2668.00
597.82	2677.00
598.28	2674.00
598.73	2662.00
599.18	2673.00
599.63	2659.00
600.08	2657.00
600.53	2654.00
600.98	2661.00
601.43	2668.00
601.88	2660.00
602.34	2656.00
602.79	2670.00
603.24	2679.00
603.69	2667.00
604.14	2678.00
604.59	2676.00
605.04	2673.00
605.49	2656.00
605.94	2673.00
606.39	2672.00
606.84	2659.00
607.30	2674.00
607.75	2677.00
608.20	2655.00
608.65	2653.00
609.10	2661.00
609.55	2655.00
610.00	2680.00
610.45	2664.00
610.90	2670.00
611.35	2663.00
611.80	2668.00
612.25	2671.00
612.70	2708.00
613.15	2659.00
613.60	2657.00
614.05	2687.00
614.50	2712.00
614.95	2651.00
615.40	2662.00
615.85	2656.00
616.30	2675.00
616.75	2646.00
617.20	2671.00
617.65	2671.00
618.10	2672.00
618.55	2684.00
619.00	2664.00
619.45	2677.00
619.90	2661.00
620.35	2661.00
620.80	2669.00
621.25	2666.00
621.70	2667.00
622.15	2665.00
622.60	2665.00
623.05	2666.00
623.50	2654.00
623.95	2669.00
624.40	2667.00
624.85	2669.00
625.30	2657.00
625.75	2655.00
626.20	2655.00
626.65	2698.00
627.10	2654.00
627.55	2653.00
627.99	2665.00
628.44	2681.00
628.89	2659.00
629.34	2670.00
629.79	2664.00
630.24	2663.00
630.69	2663.00
631.14	2659.00
631.59	2660.00
632.04	2677.00
632.49	2662.00
632.94	2666.00
633.38	2698.00
633.83	2656.00
634.28	2653.00
634.73	2667.00
635.18	2674.00
635.63	2678.00
636.08	2668.00
636.53	2685.00
636.97	2650.00
637.42	2674.00
637.87	2677.00
638.32	2668.00
638.77	2670.00
639.22	2660.00
639.67	2661.00
640.11	2689.00
640.56	2669.00
641.01	2676.00
641.46	2679.00
641.91	2666.00
642.36	2675.00
642.81	2660.00
643.25	2671.00
643.70	2664.00
644.15	2663.00
644.60	2669.00
645.05	2666.00
645.49	2660.00
645.94	2670.00
646.39	2672.00
646.84	2676.00
647.29	2661.00
647.73	2678.00
648.18	2662.00
648.63	2684.00
649.08	2659.00
649.53	2670.00
649.97	2665.00
650.42	2672.00
650.87	2651.00
651.32	2660.00
651.77	2664.00
652.21	2675.00
652.66	2781.00
653.11	2656.00
653.56	2654.00
654.00	2681.00
654.45	2656.00
654.90	2665.00
655.35	2695.00
655.79	2672.00
656.24	2674.00
656.69	2683.00
657.14	2663.00
657.58	2684.00
658.03	2664.00
658.48	2658.00
658.92	2679.00
659.37	2676.00
659.82	2675.00
660.27	2662.00
660.71	2672.00
661.16	2655.00
661.61	2683.00
662.05	2672.00
662.50	2664.00
662.95	2668.00
663.39	2649.00
663.84	2659.00
664.29	2657.00
664.74	2659.00
665.18	2659.00
665.63	2673.00
666.08	2665.00
666.52	2659.00
666.97	2666.00
667.42	2665.00
667.86	2669.00
668.31	2659.00
668.76	2673.00
669.20	2670.00
669.65	2668.00
670.09	2667.00
670.54	2667.00
670.99	2668.00
671.43	2670.00
671.88	2671.00
672.33	2670.00
672.77	2677.00
673.22	2652.00
673.66	2703.00
674.11	2663.00
674.56	2660.00
675.00	2675.00
675.45	2684.00
675.90	2663.00
676.34	2665.00
676.79	2643.00
677.23	2669.00
677.68	2671.00
678.12	2675.00
678.57	2675.00
679.02	2674.00
679.46	2649.00
679.91	2684.00
680.35	2669.00
680.80	2660.00
681.25	2665.00
681.69	2659.00
682.14	2650.00
682.58	2673.00
683.03	2662.00
683.47	2673.00
683.92	2672.00
684.36	2667.00
684.81	2651.00
685.25	2657.00
685.70	2658.00
686.15	2706.00
686.59	2667.00
687.04	2656.00
687.48	2661.00
687.93	2648.00
688.37	2659.00
688.82	2662.00
689.26	2661.00
689.71	2675.00
690.15	2684.00
690.60	2664.00
691.04	2666.00
691.49	2660.00
691.93	2668.00
692.38	2673.00
692.82	2656.00
693.27	2658.00
693.71	2658.00
694.16	2672.00
694.60	2680.00
695.04	2668.00
695.49	2670.00
695.93	2663.00
696.38	2669.00
696.82	2718.00
697.27	2706.00
697.71	2672.00
698.16	2669.00
698.60	2661.00
699.04	2670.00
699.49	2673.00
699.93	2666.00
700.38	2672.00
700.82	2666.00
701.27	2711.00
701.71	2670.00
702.15	2668.00
702.60	2673.00
703.04	2656.00
703.49	2676.00
703.93	2673.00
704.37	2664.00
704.82	2668.00
705.26	2655.00
705.71	2677.00
706.15	2662.00
706.59	2675.00
707.04	2656.00
707.48	2694.00
707.93	2661.00
708.37	2682.00
708.81	2674.00
709.26	2675.00
709.70	2671.00
710.14	2667.00
710.59	2653.00
711.03	2665.00
711.47	2690.00
711.92	2686.00
712.36	2680.00
712.80	2664.00
713.25	2679.00
713.69	2678.00
714.13	2666.00
714.58	2657.00
715.02	2663.00
715.46	2668.00
715.91	2681.00
716.35	2669.00
716.79	2661.00
717.24	2658.00
717.68	2681.00
718.12	2669.00
718.57	2655.00
719.01	2660.00
719.45	2659.00
719.89	2662.00
720.34	2675.00
720.78	2665.00
721.22	2663.00
721.66	2662.00
722.11	2670.00
722.55	2660.00
722.99	2661.00
723.44	2668.00
723.88	2659.00
724.32	2658.00
724.76	2666.00
725.21	2671.00
725.65	2674.00
726.09	2671.00
726.53	2671.00
726.97	2675.00
727.42	2669.00
727.86	2649.00
728.30	2671.00
728.74	2679.00
729.19	2676.00
729.63	2677.00
730.07	2680.00
730.51	2657.00
730.95	2678.00
731.40	2670.00
731.84	2668.00
732.28	2684.00
732.72	2687.00
733.16	2662.00
733.61	2685.00
734.05	2676.00
734.49	2666.00
734.93	2651.00
735.37	2677.00
735.81	2662.00
736.26	2670.00
736.70	2684.00
737.14	2665.00
737.58	2677.00
738.02	2702.00
738.46	2658.00
738.90	2669.00
739.35	2675.00
739.79	2660.00
740.23	2672.00
740.67	2678.00
741.11	2681.00
741.55	2664.00
741.99	2655.00
742.44	2680.00
742.88	2669.00
743.32	2693.00
743.76	2654.00
744.20	2678.00
744.64	2665.00
745.08	2671.00
745.52	2664.00
745.96	2672.00
746.40	2667.00
746.84	2670.00
747.29	2674.00
747.73	2678.00
748.17	2664.00
748.61	2683.00
749.05	2661.00
749.49	2685.00
749.93	2689.00
750.37	2678.00
750.81	2666.00
751.25	2659.00
751.69	2674.00
752.13	2669.00
752.57	2676.00
753.01	2661.00
753.45	2682.00
753.89	2673.00
754.33	2670.00
754.77	2675.00
755.21	2677.00
755.65	2675.00
756.09	2663.00
756.53	2671.00
756.97	2670.00
757.41	2686.00
757.85	2681.00
758.29	2668.00
758.73	2668.00
759.17	2662.00
759.61	2670.00
760.05	2657.00
760.49	2671.00
760.93	2685.00
761.37	2673.00
761.81	2676.00
762.25	2679.00
762.69	2670.00
763.13	2667.00
763.57	2686.00
764.01	2670.00
764.45	2684.00
764.89	2677.00
765.33	2678.00
765.77	2677.00
766.21	2664.00
766.65	2681.00
767.09	2695.00
767.53	2679.00
767.96	2669.00
768.40	2676.00
768.84	2693.00
769.28	2665.00
769.72	2673.00
770.16	2672.00
770.60	2645.00
771.04	2679.00
771.48	2659.00
771.92	2665.00
772.35	2681.00
772.79	2679.00
773.23	2680.00
773.67	2670.00
774.11	2662.00
774.55	2668.00
774.99	2674.00
775.43	2649.00
775.86	2676.00
776.30	2676.00
776.74	2660.00
777.18	2673.00
777.62	2722.00
778.06	2673.00
778.50	2677.00
778.93	2653.00
779.37	2668.00
779.81	2667.00
780.25	2675.00
780.69	2666.00
781.12	2664.00
781.56	2764.00
782.00	2672.00
782.44	2757.00
782.88	2680.00
783.32	2669.00
783.75	2678.00
784.19	2679.00
784.63	2679.00
785.07	2650.00
785.50	2654.00
785.94	2690.00
786.38	2675.00
786.82	2675.00
787.26	2678.00
787.69	2662.00
788.13	2673.00
788.57	2665.00
789.01	2736.00
789.44	2664.00
789.88	2684.00
790.32	2664.00
790.76	2671.00
791.19	2663.00
791.63	2680.00
792.07	2670.00
792.51	2683.00
792.94	2669.00
793.38	2672.00
793.82	2672.00
794.25	2674.00
794.69	2680.00
795.13	2660.00
795.56	2689.00
796.00	2667.00
796.44	2680.00
796.88	2678.00
797.31	2666.00
797.75	2678.00
798.19	2682.00
798.62	2673.00
799.06	2681.00
799.50	2680.00
799.93	2681.00
800.37	2672.00
800.81	2673.00
801.24	2661.00
801.68	2667.00
802.12	2672.00
802.55	2685.00
802.99	2674.00
803.43	2668.00
803.86	2672.00
804.30	2682.00
804.73	2689.00
805.17	2678.00
805.61	2662.00
806.04	2667.00
806.48	2673.00
806.92	2677.00
807.35	2677.00
807.79	2664.00
808.22	2668.00
808.66	2656.00
809.10	2662.00
809.53	2673.00
809.97	2669.00
810.40	2691.00
810.84	2663.00
811.27	2673.00
811.71	2667.00
812.15	2665.00
812.58	2667.00
813.02	2666.00
813.45	2668.00
813.89	2675.00
814.32	2677.00
814.76	2661.00
815.19	2690.00
815.63	2672.00
816.07	2661.00
816.50	2676.00
816.94	2679.00
817.37	2686.00
817.81	2665.00
818.24	2670.00
818.68	2673.00
819.11	2668.00
819.55	2688.00
819.98	2688.00
820.42	2669.00
820.85	2656.00
821.29	2680.00
821.72	2648.00
822.16	2670.00
822.59	2663.00
823.03	2665.00
823.46	2669.00
823.90	2670.00
824.33	2664.00
824.77	2670.00
825.20	2669.00
825.63	2676.00
826.07	2660.00
826.50	2679.00
826.94	2667.00
827.37	2675.00
827.81	2693.00
828.24	2673.00
828.68	2670.00
829.11	2677.00
829.54	2672.00
829.98	2673.00
830.41	2670.00
830.85	2679.00
831.28	2665.00
831.71	2678.00
832.15	2654.00
832.58	2663.00
833.02	2683.00
833.45	2675.00
833.88	2662.00
834.32	2672.00
834.75	2683.00
835.19	2713.00
835.62	2660.00
836.05	2671.00
836.49	2667.00
836.92	2660.00
837.35	2672.00
837.79	2673.00
838.22	2675.00
838.66	2673.00
839.09	2675.00
839.52	2657.00
839.96	2663.00
840.39	2674.00
840.82	2670.00
841.26	2659.00
841.69	2674.00
842.12	2690.00
842.56	2675.00
842.99	2664.00
843.42	2667.00
843.85	2661.00
844.29	2679.00
844.72	2663.00
845.15	2661.00
845.59	2679.00
846.02	2657.00
846.45	2691.00
846.88	2669.00
847.32	2662.00
847.75	2675.00
848.18	2697.00
848.62	2670.00
849.05	2676.00
849.48	2667.00
849.91	2670.00
850.35	2675.00
850.78	2670.00
851.21	2694.00
851.64	2681.00
852.08	2682.00
852.51	2663.00
852.94	2677.00
853.37	2675.00
853.80	2664.00
854.24	2692.00
854.67	2679.00
855.10	2666.00
855.53	2661.00
855.97	2659.00
856.40	2693.00
856.83	2678.00
857.26	2672.00
857.69	2673.00
858.13	2672.00
858.56	2670.00
858.99	2673.00
859.42	2676.00
859.85	2673.00
860.28	2682.00
860.72	2673.00
861.15	2662.00
861.58	2673.00
862.01	2668.00
862.44	2665.00
862.87	2685.00
863.30	2672.00
863.74	2670.00
864.17	2663.00
864.60	2682.00
865.03	2677.00
865.46	2687.00
865.89	2664.00
866.32	2681.00
866.75	2663.00
867.19	2676.00
867.62	2679.00
868.05	2673.00
868.48	2687.00
868.91	2669.00
869.34	2704.00
869.77	2653.00
870.20	2649.00
870.63	2662.00
871.06	2684.00
871.49	2677.00
871.93	2652.00
872.36	2673.00
872.79	2687.00
873.22	2688.00
873.65	2685.00
874.08	2665.00
874.51	2676.00
874.94	2674.00
875.37	2687.00
875.80	2659.00
876.23	2658.00
876.66	2676.00
877.09	2659.00
877.52	2654.00
877.95	2670.00
878.38	2677.00
878.81	2657.00
879.24	2644.00
879.67	2657.00
880.10	2684.00
880.53	2678.00
880.96	2664.00
881.39	2685.00
881.82	2706.00
882.25	2679.00
882.68	2652.00
883.11	2661.00
883.54	2662.00
883.97	2688.00
884.40	2666.00
884.83	2672.00
885.26	2695.00
885.69	2670.00
886.12	2670.00
886.55	2671.00
886.98	2677.00
887.40	2678.00
887.83	2673.00
888.26	2688.00
888.69	2675.00
889.12	2672.00
889.55	2663.00
889.98	2696.00
890.41	2668.00
890.84	2676.00
891.27	2678.00
891.70	2671.00
892.12	2666.00
892.55	2681.00
892.98	2663.00
893.41	2665.00
893.84	2673.00
894.27	2680.00
894.70	2655.00
895.13	2677.00
895.55	2670.00
895.98	2678.00
896.41	2667.00
896.84	2663.00
897.27	2665.00
897.70	2668.00
898.13	2666.00
898.55	2671.00
898.98	2677.00
899.41	2685.00
899.84	2671.00
900.27	2677.00
900.70	2665.00
901.12	2661.00
901.55	2664.00
901.98	2681.00
902.41	2674.00
902.84	2686.00
903.26	2661.00
903.69	2672.00
904.12	2674.00
904.55	2652.00
904.97	2676.00
905.40	2673.00
905.83	2700.00
906.26	2686.00
906.69	2666.00
907.11	2683.00
907.54	2676.00
907.97	2657.00
908.40	2673.00
908.82	2679.00
909.25	2676.00
909.68	2651.00
910.10	2664.00
910.53	2672.00
910.96	2701.00
911.39	2681.00
911.81	2683.00
912.24	2660.00
912.67	2678.00
913.09	2684.00
913.52	2661.00
913.95	2666.00
914.38	2671.00
914.80	2672.00
915.23	2653.00
915.66	2679.00
916.08	2669.00
916.51	2679.00
916.94	2684.00
917.36	2682.00
917.79	2667.00
918.22	2656.00
918.64	2671.00
919.07	2673.00
919.50	2665.00
919.92	2673.00
920.35	2693.00
920.78	2650.00
921.20	2672.00
921.63	2669.00
922.05	2669.00
922.48	2685.00
922.91	2666.00
923.33	2659.00
923.76	2682.00
924.18	2666.00
924.61	2698.00
925.04	2683.00
925.46	2667.00
925.89	2662.00
926.31	2690.00
926.74	2670.00
927.17	2675.00
927.59	2672.00
928.02	2681.00
928.44	2670.00
928.87	2678.00
929.29	2676.00
929.72	2668.00
930.15	2679.00
930.57	2684.00
931.00	2667.00
931.42	2661.00
931.85	2690.00
932.27	2676.00
932.70	2659.00
933.12	2678.00
933.55	2663.00
933.97	2666.00
934.40	2676.00
934.82	2686.00
935.25	2673.00
935.67	2670.00
936.10	2668.00
936.52	2673.00
936.95	2672.00
937.37	2677.00
937.80	2686.00
938.22	2677.00
938.65	2662.00
939.07	2664.00
939.50	2674.00
939.92	2699.00
940.35	2672.00
940.77	2676.00
941.19	2672.00
941.62	2662.00
942.04	2684.00
942.47	2685.00
942.89	2682.00
943.32	2664.00
943.74	2670.00
944.16	2679.00
944.59	2656.00
945.01	2664.00
945.44	2671.00
945.86	2701.00
946.29	2669.00
946.71	2678.00
947.13	2668.00
947.56	2674.00
947.98	2668.00
948.40	2664.00
948.83	2689.00
949.25	2673.00
949.68	2666.00
950.10	2667.00
950.52	2666.00
950.95	2675.00
951.37	2659.00
951.79	2672.00
952.22	2666.00
952.64	2673.00
953.06	2675.00
953.49	2682.00
953.91	2659.00
954.33	2675.00
954.76	2673.00
955.18	2679.00
955.60	2656.00
956.03	2658.00
956.45	2683.00
956.87	2668.00
957.30	2675.00
957.72	2673.00
958.14	2659.00
958.56	2658.00
958.99	2654.00
959.41	2677.00
959.83	2668.00
960.26	2659.00
960.68	2672.00
961.10	2676.00
961.52	2674.00
961.95	2679.00
962.37	2679.00
962.79	2656.00
963.21	2659.00
963.64	2691.00
964.06	2682.00
964.48	2681.00
964.90	2678.00
965.32	2666.00
965.75	2679.00
966.17	2671.00
966.59	2656.00
967.01	2691.00
967.44	2669.00
967.86	2658.00
968.28	2680.00
968.70	2688.00
969.12	2661.00
969.54	2668.00
969.97	2673.00
970.39	2665.00
970.81	2669.00
971.23	2681.00
971.65	2657.00
972.07	2690.00
972.50	2661.00
972.92	2682.00
973.34	2675.00
973.76	2654.00
974.18	2679.00
974.60	2686.00
975.02	2672.00
975.45	2667.00
975.87	2676.00
976.29	2682.00
976.71	2692.00
977.13	2665.00
977.55	2679.00
977.97	2665.00
978.39	2660.00
978.81	2673.00
979.24	2676.00
979.66	2691.00
980.08	2685.00
980.50	2690.00
980.92	2678.00
981.34	2671.00
981.76	2674.00
982.18	2662.00
982.60	2671.00
983.02	2676.00
983.44	2678.00
983.86	2662.00
984.28	2685.00
984.70	2676.00
985.12	2677.00
985.54	2665.00
985.96	2679.00
986.38	2664.00
986.80	2677.00
987.23	2670.00
987.65	2658.00
988.07	2682.00
988.49	2667.00
988.91	2709.00
989.33	2659.00
989.74	2659.00
990.16	2679.00
990.58	2681.00
991.00	2681.00
991.42	2670.00
991.84	2684.00
992.26	2669.00
992.68	2671.00
993.10	2674.00
993.52	2674.00
993.94	2665.00
994.36	2660.00
994.78	2664.00
995.20	2666.00
995.62	2695.00
996.04	2668.00
996.46	2662.00
996.88	2653.00
997.30	2666.00
997.71	2660.00
998.13	2668.00
998.55	2677.00
998.97	2666.00
999.39	2685.00
999.81	2692.00
1000.23	2656.00
1000.65	2673.00
1001.07	2676.00
1001.49	2668.00
1001.90	2661.00
1002.32	2687.00
1002.74	2672.00
1003.16	2673.00
1003.58	2675.00
1004.00	2663.00
1004.42	2680.00
1004.83	2691.00
1005.25	2683.00
1005.67	2701.00
1006.09	2685.00
1006.51	2664.00
1006.92	2680.00
1007.34	2665.00
1007.76	2672.00
1008.18	2656.00
1008.60	2690.00
1009.02	2669.00
1009.43	2662.00
1009.85	2668.00
1010.27	2654.00
1010.69	2697.00
1011.10	2678.00
1011.52	2673.00
1011.94	2682.00
1012.36	2687.00
1012.78	2725.00
1013.19	2665.00
1013.61	2677.00
1014.03	2672.00
1014.45	2675.00
1014.86	2674.00
1015.28	2683.00
1015.70	2675.00
1016.12	2654.00
1016.53	2678.00
1016.95	2674.00
1017.37	2689.00
1017.78	2668.00
1018.20	2667.00
1018.62	2663.00
1019.03	2671.00
1019.45	2668.00
1019.87	2679.00
1020.29	2685.00
1020.70	2667.00
1021.12	2681.00
1021.54	2669.00
1021.95	2683.00
1022.37	2665.00
1022.79	2678.00
1023.20	2661.00
1023.62	2664.00
1024.04	2680.00
1024.45	2660.00
1024.87	2665.00
1025.28	2666.00
1025.70	2665.00
1026.12	2676.00
1026.53	2677.00
1026.95	2661.00
1027.37	2672.00
1027.78	2665.00
1028.20	2681.00
1028.61	2668.00
1029.03	2682.00
1029.45	2693.00
1029.86	2680.00
1030.28	2688.00
1030.69	2718.00
1031.11	2662.00
1031.53	2669.00
1031.94	2676.00
1032.36	2679.00
1032.77	2687.00
1033.19	2665.00
1033.60	2648.00
1034.02	2670.00
1034.43	2689.00
1034.85	2665.00
1035.27	2671.00
1035.68	2689.00
1036.10	2713.00
1036.51	2669.00
1036.93	2686.00
1037.34	2679.00
1037.76	2669.00
1038.17	2714.00
1038.59	2659.00
1039.00	2665.00
1039.42	2683.00
1039.83	2686.00
1040.25	2663.00
1040.66	2681.00
1041.08	2678.00
1041.49	2667.00
1041.91	2667.00
1042.32	2678.00
1042.73	2672.00
1043.15	2670.00
1043.56	2668.00
1043.98	2715.00
1044.39	2677.00
1044.81	2663.00
1045.22	2671.00
1045.64	2677.00
1046.05	2666.00
1046.46	2665.00
1046.88	2656.00
1047.29	2657.00
1047.71	2711.00
1048.12	2667.00
1048.53	2684.00
1048.95	2680.00
1049.36	2658.00
1049.78	2669.00
1050.19	2667.00
1050.60	2670.00
1051.02	2676.00
1051.43	2668.00
1051.85	2664.00
1052.26	2668.00
1052.67	2678.00
1053.09	2671.00
1053.50	2671.00
1053.91	2668.00
1054.33	2671.00
1054.74	2676.00
1055.15	2678.00
1055.57	2659.00
1055.98	2671.00
1056.39	2676.00
1056.81	2677.00
1057.22	2672.00
1057.63	2679.00
1058.05	2660.00
1058.46	2665.00
1058.87	2671.00
1059.28	2677.00
1059.70	2669.00
1060.11	2693.00
1060.52	2665.00
1060.94	2676.00
1061.35	2665.00
1061.76	2673.00
1062.17	2670.00
1062.59	2662.00
1063.00	2668.00
1063.41	2673.00
1063.82	2676.00
1064.24	2671.00
1064.65	2681.00
1065.06	2677.00
1065.47	2665.00
1065.89	2691.00
1066.30	2673.00
1066.71	2670.00
1067.12	2668.00
1067.53	2677.00
1067.95	2667.00
1068.36	2671.00
1068.77	2682.00
1069.18	2670.00
1069.59	2670.00
1070.00	2670.00
1070.42	2666.00
1070.83	2679.00
1071.24	2690.00
1071.65	2686.00
1072.06	2677.00
1072.47	2684.00
1072.89	2661.00
1073.30	2665.00
1073.71	2690.00
1074.12	2674.00
1074.53	2683.00
1074.94	2679.00
1075.35	2683.00
1075.77	2670.00
1076.18	2663.00
1076.59	2671.00
1077.00	2666.00
1077.41	2677.00
1077.82	2658.00
1078.23	2671.00
1078.64	2685.00
1079.05	2675.00
1079.46	2688.00
1079.87	2673.00
1080.29	2677.00
1080.70	2669.00
1081.11	2684.00
1081.52	2667.00
1081.93	2677.00
1082.34	2670.00
1082.75	2683.00
1083.16	2663.00
1083.57	2684.00
1083.98	2680.00
1084.39	2675.00
1084.80	2676.00
1085.21	2667.00
1085.62	2645.00
1086.03	2820.00
1086.44	2679.00
1086.85	2665.00
1087.26	2679.00
1087.67	2679.00
1088.08	2679.00
1088.49	2687.00
1088.90	2676.00
1089.31	2668.00
1089.72	2663.00
1090.13	2671.00
1090.54	2676.00
1090.95	2657.00
1091.36	2670.00
1091.77	2677.00
1092.18	2679.00
1092.59	2665.00
1093.00	2692.00
1093.40	2676.00
1093.81	2666.00
1094.22	2663.00
1094.63	2675.00
1095.04	2664.00
1095.45	2661.00
1095.86	2671.00
1096.27	2663.00
1096.68	2679.00
1097.09	2660.00
1097.50	2684.00
1097.90	2677.00
1098.31	2652.00
1098.72	2667.00
1099.13	2677.00
1099.54	2674.00
1099.95	2672.00
1100.36	2667.00
1100.76	2684.00
1101.17	2675.00
1101.58	2663.00
1101.99	2670.00
1102.40	2667.00
1102.81	2669.00
1103.22	2667.00
1103.62	2668.00
1104.03	2671.00
1104.44	2657.00
1104.85	2655.00
1105.26	2675.00
1105.66	2667.00
1106.07	2656.00
1106.48	2659.00
1106.89	2652.00
1107.30	2675.00
1107.70	2657.00
1108.11	2669.00
1108.52	2667.00
1108.93	2660.00
1109.33	2677.00
1109.74	2653.00
1110.15	2655.00
1110.56	2661.00
1110.96	2667.00
1111.37	2655.00
1111.78	2669.00
1112.19	2659.00
1112.59	2661.00
1113.00	2669.00
1113.41	2644.00
1113.81	2646.00
1114.22	2654.00
1114.63	2551.00
1115.03	2552.00
1115.44	2551.00
1115.85	2557.00
>>>>>End Processed Spectral Data<<<<<
