SpectraSuite Data File
++++++++++++++++++++++++++++++++++++
Date: Tue Sep 01 10:29:37 EEST 2020
User: OO Maya
Dark Spectrum Present: No
Reference Spectrum Present: No
Number of Sampled Component Spectra: 1
Spectrometers: MAYP11278
Integration Time (usec): 150000 (MAYP11278)
Spectra Averaged: 1 (MAYP11278)
Boxcar Smoothing: 0 (MAYP11278)
Correct for Electrical Dark: No (MAYP11278)
Strobe/Lamp Enabled: No (MAYP11278)
Correct for Detector Non-linearity: No (MAYP11278)
Correct for Stray Light: No (MAYP11278)
Number of Pixels in Processed Spectrum: 2068
>>>>>Begin Processed Spectral Data<<<<<
187,69	2281,00
188,17	2207,00
188,64	2177,00
189,12	2177,00
189,60	2319,00
190,08	2363,00
190,55	2379,00
191,03	2428,00
191,51	2432,00
191,99	2423,00
192,46	2432,00
192,94	2407,00
193,42	2423,00
193,89	2405,00
194,37	2422,00
194,85	2424,00
195,33	2432,00
195,80	2418,00
196,28	2421,00
196,76	2429,00
197,24	2420,00
197,71	2416,00
198,19	2418,00
198,67	2435,00
199,14	2436,00
199,62	2438,00
200,10	2414,00
200,57	2423,00
201,05	2417,00
201,53	2415,00
202,01	2436,00
202,48	2401,00
202,96	2411,00
203,44	2415,00
203,91	2433,00
204,39	2409,00
204,87	2409,00
205,34	2422,00
205,82	2433,00
206,30	2405,00
206,77	2415,00
207,25	2453,00
207,73	2418,00
208,20	2423,00
208,68	2415,00
209,16	2432,00
209,63	2433,00
210,11	2394,00
210,59	2411,00
211,06	2423,00
211,54	2423,00
212,02	2416,00
212,49	2427,00
212,97	2430,00
213,45	2407,00
213,92	2448,00
214,40	2421,00
214,88	2438,00
215,35	2441,00
215,83	2425,00
216,30	2433,00
216,78	2426,00
217,26	2410,00
217,73	2408,00
218,21	2427,00
218,69	2391,00
219,16	2414,00
219,64	2400,00
220,11	2423,00
220,59	2431,00
221,07	2411,00
221,54	2413,00
222,02	2402,00
222,49	2424,00
222,97	2417,00
223,45	2419,00
223,92	2433,00
224,40	2404,00
224,87	2405,00
225,35	2404,00
225,83	2418,00
226,30	2411,00
226,78	2418,00
227,25	2393,00
227,73	2419,00
228,20	2436,00
228,68	2425,00
229,16	2415,00
229,63	2415,00
230,11	2418,00
230,58	2416,00
231,06	2418,00
231,53	2417,00
232,01	2425,00
232,49	2404,00
232,96	2397,00
233,44	2417,00
233,91	2447,00
234,39	2418,00
234,86	2415,00
235,34	2411,00
235,81	2426,00
236,29	2423,00
236,77	2447,00
237,24	2407,00
237,72	2408,00
238,19	2406,00
238,67	2399,00
239,14	2416,00
239,62	2393,00
240,09	2431,00
240,57	2427,00
241,04	2410,00
241,52	2407,00
241,99	2424,00
242,47	2431,00
242,94	2402,00
243,42	2426,00
243,89	2429,00
244,37	2430,00
244,84	2427,00
245,32	2443,00
245,79	2739,00
246,27	2415,00
246,74	2425,00
247,22	2419,00
247,69	2401,00
248,17	2459,00
248,64	2398,00
249,12	2428,00
249,59	2440,00
250,07	2423,00
250,54	2443,00
251,02	2433,00
251,49	2449,00
251,97	2440,00
252,44	2432,00
252,92	2428,00
253,39	2432,00
253,87	2421,00
254,34	2426,00
254,81	2444,00
255,29	2443,00
255,76	2426,00
256,24	2446,00
256,71	2443,00
257,19	2420,00
257,66	2468,00
258,14	2410,00
258,61	2417,00
259,08	2419,00
259,56	2436,00
260,03	2441,00
260,51	2437,00
260,98	2430,00
261,46	2420,00
261,93	2429,00
262,40	2423,00
262,88	2420,00
263,35	2390,00
263,83	2455,00
264,30	2448,00
264,78	2417,00
265,25	2437,00
265,72	2417,00
266,20	2441,00
266,67	2426,00
267,15	2430,00
267,62	2442,00
268,09	2439,00
268,57	2420,00
269,04	2431,00
269,51	2425,00
269,99	2433,00
270,46	2450,00
270,94	2418,00
271,41	2425,00
271,88	2405,00
272,36	2411,00
272,83	2429,00
273,31	2428,00
273,78	2461,00
274,25	2425,00
274,73	2440,00
275,20	2422,00
275,67	2427,00
276,15	2441,00
276,62	2441,00
277,09	2422,00
277,57	2420,00
278,04	2424,00
278,51	2470,00
278,99	2423,00
279,46	2426,00
279,93	2483,00
280,41	2440,00
280,88	2478,00
281,35	2452,00
281,83	2441,00
282,30	2441,00
282,77	2443,00
283,25	2430,00
283,72	2438,00
284,19	2426,00
284,67	2442,00
285,14	2451,00
285,61	2436,00
286,09	2431,00
286,56	2444,00
287,03	2435,00
287,51	2458,00
287,98	2432,00
288,45	2431,00
288,92	2420,00
289,40	2445,00
289,87	2445,00
290,34	2424,00
290,82	2427,00
291,29	2441,00
291,76	2461,00
292,23	2426,00
292,71	2438,00
293,18	2425,00
293,65	2436,00
294,13	2454,00
294,60	2430,00
295,07	2438,00
295,54	2440,00
296,02	2459,00
296,49	2449,00
296,96	2449,00
297,43	2439,00
297,91	2432,00
298,38	2426,00
298,85	2457,00
299,32	2439,00
299,80	2431,00
300,27	2429,00
300,74	2447,00
301,21	2455,00
301,69	2454,00
302,16	2419,00
302,63	2460,00
303,10	2438,00
303,58	2435,00
304,05	2421,00
304,52	2412,00
304,99	2436,00
305,46	2433,00
305,94	2419,00
306,41	2428,00
306,88	2430,00
307,35	2423,00
307,82	2416,00
308,30	2429,00
308,77	2426,00
309,24	2456,00
309,71	2435,00
310,18	2422,00
310,66	2437,00
311,13	2430,00
311,60	2441,00
312,07	2445,00
312,54	2442,00
313,02	2433,00
313,49	2416,00
313,96	2433,00
314,43	2436,00
314,90	2419,00
315,37	2444,00
315,85	2434,00
316,32	2429,00
316,79	2437,00
317,26	2430,00
317,73	2453,00
318,20	2444,00
318,68	2422,00
319,15	2424,00
319,62	2445,00
320,09	2439,00
320,56	2440,00
321,03	2430,00
321,50	2426,00
321,98	2424,00
322,45	2444,00
322,92	2433,00
323,39	2459,00
323,86	2394,00
324,33	2430,00
324,80	2424,00
325,27	2445,00
325,75	2434,00
326,22	2426,00
326,69	2430,00
327,16	2442,00
327,63	2441,00
328,10	2426,00
328,57	2430,00
329,04	2440,00
329,51	2430,00
329,98	2434,00
330,46	2447,00
330,93	2431,00
331,40	2451,00
331,87	2426,00
332,34	2450,00
332,81	2443,00
333,28	2441,00
333,75	2456,00
334,22	2458,00
334,69	2436,00
335,16	2467,00
335,63	2444,00
336,10	2454,00
336,58	2450,00
337,05	2428,00
337,52	2428,00
337,99	2430,00
338,46	2441,00
338,93	2413,00
339,40	2411,00
339,87	2410,00
340,34	2402,00
340,81	2428,00
341,28	2413,00
341,75	2401,00
342,22	2415,00
342,69	2425,00
343,16	2412,00
343,63	2392,00
344,10	2391,00
344,57	2387,00
345,04	2403,00
345,51	2409,00
345,98	2396,00
346,45	2396,00
346,92	2417,00
347,39	2393,00
347,86	2411,00
348,33	2405,00
348,80	2386,00
349,27	2408,00
349,74	2405,00
350,21	2397,00
350,68	2400,00
351,15	2402,00
351,62	2406,00
352,09	2409,00
352,56	2394,00
353,03	2416,00
353,50	2409,00
353,97	2404,00
354,44	2422,00
354,91	2409,00
355,38	2422,00
355,85	2388,00
356,32	2414,00
356,79	2389,00
357,26	2447,00
357,73	2398,00
358,20	2390,00
358,67	2387,00
359,14	2396,00
359,61	2409,00
360,08	2418,00
360,55	2425,00
361,02	2389,00
361,48	2397,00
361,95	2412,00
362,42	2405,00
362,89	2414,00
363,36	2433,00
363,83	2419,00
364,30	2392,00
364,77	2410,00
365,24	2406,00
365,71	2424,00
366,18	2430,00
366,65	2421,00
367,12	2653,00
367,58	2428,00
368,05	2406,00
368,52	2419,00
368,99	2398,00
369,46	2428,00
369,93	2428,00
370,40	2412,00
370,87	2597,00
371,34	2418,00
371,80	2413,00
372,27	2421,00
372,74	2440,00
373,21	2433,00
373,68	2422,00
374,15	2420,00
374,62	2440,00
375,09	2409,00
375,55	2447,00
376,02	2414,00
376,49	2421,00
376,96	2423,00
377,43	2428,00
377,90	2422,00
378,37	2448,00
378,83	2436,00
379,30	2429,00
379,77	2431,00
380,24	2463,00
380,71	2448,00
381,18	2445,00
381,64	2446,00
382,11	2422,00
382,58	2434,00
383,05	2446,00
383,52	2457,00
383,99	2450,00
384,45	2487,00
384,92	2446,00
385,39	2453,00
385,86	2458,00
386,33	2472,00
386,79	2448,00
387,26	2426,00
387,73	2448,00
388,20	2446,00
388,67	2456,00
389,13	2440,00
389,60	2470,00
390,07	2490,00
390,54	2482,00
391,01	2493,00
391,47	2512,00
391,94	2528,00
392,41	2542,00
392,88	2542,00
393,34	2635,00
393,81	2674,00
394,28	2782,00
394,75	2841,00
395,22	2895,00
395,68	3001,00
396,15	2960,00
396,62	3122,00
397,09	3433,00
397,55	3820,00
398,02	4136,00
398,49	4389,00
398,96	4740,00
399,42	5022,00
399,89	5310,00
400,36	5531,00
400,82	5978,00
401,29	6336,00
401,76	6596,00
402,23	6894,00
402,69	7073,00
403,16	7346,00
403,63	7823,00
404,10	7892,00
404,56	8183,00
405,03	8447,00
405,50	8666,00
405,96	8934,00
406,43	9350,00
406,90	9706,00
407,36	10069,00
407,83	10725,00
408,30	11045,00
408,77	11185,00
409,23	11076,00
409,70	10984,00
410,17	11847,00
410,63	12570,00
411,10	13154,00
411,57	13306,00
412,03	13413,00
412,50	13595,00
412,97	13760,00
413,43	14104,00
413,90	14347,00
414,37	14376,00
414,83	14595,00
415,30	14838,00
415,77	15192,00
416,23	15095,00
416,70	15026,00
417,16	14919,00
417,63	15203,00
418,10	15254,00
418,56	15354,00
419,03	15573,00
419,50	15512,00
419,96	16024,00
420,43	16423,00
420,90	16448,00
421,36	16292,00
421,83	16045,00
422,29	15683,00
422,76	16224,00
423,23	16406,00
423,69	16587,00
424,16	16709,00
424,62	16436,00
425,09	16530,00
425,56	16550,00
426,02	16598,00
426,49	16437,00
426,95	16095,00
427,42	16421,00
427,89	16480,00
428,35	15873,00
428,82	15306,00
429,28	14502,00
429,75	13839,00
430,21	14357,00
430,68	15409,00
431,15	17390,00
431,61	18241,00
432,08	17597,00
432,54	18028,00
433,01	17977,00
433,47	17453,00
433,94	17739,00
434,40	18860,00
434,87	19094,00
435,34	19634,00
435,80	19940,00
436,27	19849,00
436,73	19550,00
437,20	18855,00
437,66	18637,00
438,13	18383,00
438,59	19137,00
439,06	19735,00
439,52	20012,00
439,99	19945,00
440,45	20446,00
440,92	21148,00
441,38	21473,00
441,85	21560,00
442,31	21573,00
442,78	21741,00
443,24	21780,00
443,71	22061,00
444,17	21944,00
444,64	22051,00
445,10	21377,00
445,57	21488,00
446,03	22229,00
446,50	22809,00
446,96	23429,00
447,43	23333,00
447,89	23401,00
448,36	23619,00
448,82	23721,00
449,29	24269,00
449,75	24948,00
450,22	25211,00
450,68	25124,00
451,15	24632,00
451,61	24281,00
452,07	23635,00
452,54	23357,00
453,00	23986,00
453,47	24595,00
453,93	24495,00
454,40	24505,00
454,86	24834,00
455,33	25292,00
455,79	25786,00
456,25	25691,00
456,72	25914,00
457,18	25606,00
457,65	25405,00
458,11	25285,00
458,58	25546,00
459,04	25674,00
459,50	25834,00
459,97	26277,00
460,43	26493,00
460,90	26606,00
461,36	26889,00
461,82	26830,00
462,29	26922,00
462,75	26836,00
463,22	26705,00
463,68	26359,00
464,14	26271,00
464,61	26227,00
465,07	26691,00
465,53	26679,00
466,00	26157,00
466,46	26107,00
466,93	26624,00
467,39	26669,00
467,85	26764,00
468,32	27119,00
468,78	26890,00
469,24	26751,00
469,71	26311,00
470,17	26365,00
470,63	27037,00
471,10	27680,00
471,56	28031,00
472,02	27983,00
472,49	27528,00
472,95	27652,00
473,41	27988,00
473,88	28230,00
474,34	28218,00
474,80	28063,00
475,27	27868,00
475,73	27838,00
476,19	27759,00
476,66	28411,00
477,12	28890,00
477,58	28910,00
478,05	28817,00
478,51	28685,00
478,97	29285,00
479,44	29325,00
479,90	29127,00
480,36	29302,00
480,82	29553,00
481,29	29944,00
481,75	29758,00
482,21	29328,00
482,68	29332,00
483,14	29394,00
483,60	28836,00
484,06	28930,00
484,53	28297,00
484,99	26787,00
485,45	25137,00
485,91	25317,00
486,38	26691,00
486,84	27744,00
487,30	28380,00
487,76	28601,00
488,23	28328,00
488,69	28952,00
489,15	29953,00
489,61	30117,00
490,08	29837,00
490,54	29431,00
491,00	29150,00
491,46	28514,00
491,93	28988,00
492,39	29960,00
492,85	29919,00
493,31	29944,00
493,77	30464,00
494,24	30883,00
494,70	30720,00
495,16	30155,00
495,62	30631,00
496,08	30840,00
496,55	30889,00
497,01	30781,00
497,47	30015,00
497,93	29577,00
498,39	30237,00
498,86	30443,00
499,32	30324,00
499,78	29623,00
500,24	29214,00
500,70	29242,00
501,17	29148,00
501,63	29576,00
502,09	30321,00
502,55	30523,00
503,01	30340,00
503,47	29552,00
503,93	30161,00
504,40	30679,00
504,86	31081,00
505,32	31628,00
505,78	31579,00
506,24	31019,00
506,70	30946,00
507,17	30461,00
507,63	30328,00
508,09	31072,00
508,55	31441,00
509,01	31384,00
509,47	30949,00
509,93	31075,00
510,39	31325,00
510,86	31862,00
511,32	31862,00
511,78	31193,00
512,24	30659,00
512,70	30868,00
513,16	30596,00
513,62	30457,00
514,08	30688,00
514,54	31111,00
515,00	31216,00
515,47	30698,00
515,93	29059,00
516,39	27184,00
516,85	28039,00
517,31	29290,00
517,77	28672,00
518,23	29255,00
518,69	30239,00
519,15	30882,00
519,61	31293,00
520,07	31195,00
520,53	31444,00
520,99	32086,00
521,45	31994,00
521,91	31580,00
522,38	31122,00
522,84	31814,00
523,30	32528,00
523,76	33099,00
524,22	32850,00
524,68	32658,00
525,14	32900,00
525,60	31889,00
526,06	30038,00
526,52	30217,00
526,98	31303,00
527,44	32326,00
527,90	32819,00
528,36	33535,00
528,82	33674,00
529,28	33021,00
529,74	33221,00
530,20	34125,00
530,66	34332,00
531,12	33681,00
531,58	33208,00
532,04	32282,00
532,50	32271,00
532,96	33232,00
533,42	33269,00
533,88	33217,00
534,34	33573,00
534,80	34329,00
535,26	34661,00
535,72	34417,00
536,18	33236,00
536,64	33122,00
537,10	33830,00
537,56	34131,00
538,02	33967,00
538,47	33838,00
538,93	33173,00
539,39	32870,00
539,85	32593,00
540,31	32452,00
540,77	33208,00
541,23	33724,00
541,69	33761,00
542,15	33623,00
542,61	33438,00
543,07	33684,00
543,53	34537,00
543,99	34118,00
544,45	34053,00
544,90	34214,00
545,36	34117,00
545,82	33978,00
546,28	34069,00
546,74	34024,00
547,20	33490,00
547,66	33728,00
548,12	34285,00
548,58	34356,00
549,04	34534,00
549,49	34545,00
549,95	34114,00
550,41	34216,00
550,87	34407,00
551,33	34894,00
551,79	34733,00
552,25	34209,00
552,71	34284,00
553,16	34578,00
553,62	34829,00
554,08	34776,00
554,54	35097,00
555,00	35116,00
555,46	34664,00
555,92	34350,00
556,37	34145,00
556,83	34149,00
557,29	34297,00
557,75	34237,00
558,21	33331,00
558,67	33337,00
559,12	33752,00
559,58	33755,00
560,04	34171,00
560,50	34978,00
560,96	34372,00
561,41	33917,00
561,87	34298,00
562,33	34649,00
562,79	34812,00
563,25	34599,00
563,71	34381,00
564,16	34617,00
564,62	34487,00
565,08	33978,00
565,54	33552,00
565,99	34016,00
566,45	34520,00
566,91	34824,00
567,37	34499,00
567,83	33903,00
568,28	33785,00
568,74	33910,00
569,20	34087,00
569,66	34073,00
570,11	33516,00
570,57	33022,00
571,03	33579,00
571,49	34484,00
571,94	34683,00
572,40	34826,00
572,86	34694,00
573,32	34735,00
573,77	34693,00
574,23	34431,00
574,69	34062,00
575,15	34000,00
575,60	34063,00
576,06	34262,00
576,52	34537,00
576,97	34287,00
577,43	34049,00
577,89	33691,00
578,35	33969,00
578,80	34396,00
579,26	34674,00
579,72	35005,00
580,17	35030,00
580,63	34904,00
581,09	35389,00
581,54	35353,00
582,00	35708,00
582,46	35837,00
582,91	36021,00
583,37	36064,00
583,83	35869,00
584,28	35952,00
584,74	35551,00
585,20	34980,00
585,65	35007,00
586,11	35573,00
586,57	35749,00
587,02	35731,00
587,48	35221,00
587,94	34105,00
588,39	32412,00
588,85	31420,00
589,31	31944,00
589,76	33628,00
590,22	34489,00
590,68	34620,00
591,13	34358,00
591,59	34460,00
592,04	34696,00
592,50	34566,00
592,96	34928,00
593,41	35031,00
593,87	34476,00
594,33	34051,00
594,78	34584,00
595,24	34892,00
595,69	35188,00
596,15	35234,00
596,61	35240,00
597,06	34973,00
597,52	34734,00
597,97	34820,00
598,43	35000,00
598,88	35191,00
599,34	35291,00
599,80	35314,00
600,25	35063,00
600,71	35161,00
601,16	35125,00
601,62	34860,00
602,07	35073,00
602,53	35701,00
602,99	36148,00
603,44	36079,00
603,90	35914,00
604,35	36048,00
604,81	36014,00
605,26	35849,00
605,72	35887,00
606,17	35744,00
606,63	35949,00
607,08	35881,00
607,54	35565,00
607,99	35663,00
608,45	35555,00
608,90	35684,00
609,36	35487,00
609,81	35104,00
610,27	35406,00
610,72	35796,00
611,18	36037,00
611,63	35757,00
612,09	35663,00
612,54	35781,00
613,00	35662,00
613,45	35161,00
613,91	35729,00
614,36	36021,00
614,82	35940,00
615,27	35645,00
615,73	34816,00
616,18	34860,00
616,64	35341,00
617,09	35691,00
617,55	36421,00
618,00	36586,00
618,46	36067,00
618,91	35966,00
619,36	36768,00
619,82	36913,00
620,27	36970,00
620,73	36852,00
621,18	36490,00
621,64	36309,00
622,09	36541,00
622,55	36130,00
623,00	36086,00
623,45	36140,00
623,91	35833,00
624,36	35694,00
624,82	35723,00
625,27	35685,00
625,72	35736,00
626,18	36387,00
626,63	36244,00
627,09	35422,00
627,54	34429,00
627,99	34969,00
628,45	35661,00
628,90	35489,00
629,36	35172,00
629,81	35042,00
630,26	35723,00
630,72	35762,00
631,17	35320,00
631,62	35432,00
632,08	36072,00
632,53	36438,00
632,99	36359,00
633,44	36118,00
633,89	36155,00
634,35	36428,00
634,80	36640,00
635,25	36473,00
635,71	36271,00
636,16	36576,00
636,61	36817,00
637,07	37268,00
637,52	37078,00
637,97	37195,00
638,43	37259,00
638,88	36849,00
639,33	36604,00
639,79	36546,00
640,24	36588,00
640,69	36674,00
641,15	36685,00
641,60	36740,00
642,05	36992,00
642,50	37111,00
642,96	37000,00
643,41	37091,00
643,86	37201,00
644,32	37455,00
644,77	36930,00
645,22	36624,00
645,67	36526,00
646,13	36383,00
646,58	36407,00
647,03	36017,00
647,48	36200,00
647,94	36045,00
648,39	36026,00
648,84	35735,00
649,30	35066,00
649,75	36425,00
650,20	37166,00
650,65	36904,00
651,10	36293,00
651,56	36218,00
652,01	36773,00
652,46	36867,00
652,91	37054,00
653,37	37022,00
653,82	36928,00
654,27	36195,00
654,72	35751,00
655,18	34520,00
655,63	32025,00
656,08	30865,00
656,53	33435,00
656,98	35330,00
657,44	36116,00
657,89	36802,00
658,34	36606,00
658,79	36661,00
659,24	36814,00
659,69	37046,00
660,15	37290,00
660,60	37393,00
661,05	37551,00
661,50	37588,00
661,95	37752,00
662,41	37467,00
662,86	37280,00
663,31	37225,00
663,76	37513,00
664,21	37493,00
664,66	37780,00
665,11	37794,00
665,57	37773,00
666,02	37312,00
666,47	37576,00
666,92	37609,00
667,37	37553,00
667,82	37633,00
668,27	37834,00
668,73	37867,00
669,18	37571,00
669,63	37657,00
670,08	37522,00
670,53	37513,00
670,98	37221,00
671,43	37320,00
671,88	37264,00
672,33	37434,00
672,78	37620,00
673,24	37556,00
673,69	37375,00
674,14	37446,00
674,59	37246,00
675,04	37537,00
675,49	37650,00
675,94	37483,00
676,39	37377,00
676,84	37120,00
677,29	37261,00
677,74	37508,00
678,19	37067,00
678,64	37225,00
679,10	37312,00
679,55	37227,00
680,00	37276,00
680,45	37228,00
680,90	37232,00
681,35	37120,00
681,80	37085,00
682,25	36931,00
682,70	36906,00
683,15	37056,00
683,60	36446,00
684,05	36457,00
684,50	36514,00
684,95	36382,00
685,40	35775,00
685,85	34517,00
686,30	30516,00
686,75	26576,00
687,20	26839,00
687,65	29832,00
688,10	30884,00
688,55	30397,00
689,00	30388,00
689,45	30839,00
689,90	31590,00
690,35	32302,00
690,80	32815,00
691,25	33256,00
691,70	33208,00
692,15	33398,00
692,60	33251,00
693,05	33348,00
693,50	33236,00
693,95	33131,00
694,39	33496,00
694,84	33861,00
695,29	34031,00
695,74	34306,00
696,19	35086,00
696,64	35374,00
697,09	34866,00
697,54	34628,00
697,99	34464,00
698,44	34292,00
698,89	34135,00
699,34	34193,00
699,79	33927,00
700,24	33619,00
700,68	33670,00
701,13	33462,00
701,58	33225,00
702,03	33382,00
702,48	33554,00
702,93	34327,00
703,38	34441,00
703,83	34662,00
704,28	34879,00
704,72	34711,00
705,17	34528,00
705,62	34272,00
706,07	34462,00
706,52	34426,00
706,97	34774,00
707,42	35145,00
707,87	35039,00
708,31	34697,00
708,76	34641,00
709,21	34761,00
709,66	34635,00
710,11	34724,00
710,56	34721,00
711,00	34584,00
711,45	34669,00
711,90	34686,00
712,35	34619,00
712,80	34357,00
713,25	34365,00
713,69	34176,00
714,14	33709,00
714,59	33374,00
715,04	33512,00
715,49	33322,00
715,93	31841,00
716,38	29977,00
716,83	28268,00
717,28	27217,00
717,73	26708,00
718,17	25924,00
718,62	25384,00
719,07	25504,00
719,52	25817,00
719,96	26024,00
720,41	27647,00
720,86	29493,00
721,31	30421,00
721,75	30578,00
722,20	30004,00
722,65	28854,00
723,10	27589,00
723,54	27029,00
723,99	27128,00
724,44	27175,00
724,89	27415,00
725,33	27449,00
725,78	27603,00
726,23	27678,00
726,68	28016,00
727,12	27292,00
727,57	27260,00
728,02	28012,00
728,46	27688,00
728,91	27454,00
729,36	28142,00
729,81	28479,00
730,25	28556,00
730,70	28822,00
731,15	29053,00
731,59	29727,00
732,04	30440,00
732,49	31063,00
732,93	31199,00
733,38	31891,00
733,83	32340,00
734,27	32122,00
734,72	32368,00
735,17	32086,00
735,61	32157,00
736,06	32020,00
736,51	32272,00
736,95	32614,00
737,40	32680,00
737,85	32427,00
738,29	32149,00
738,74	32439,00
739,19	32787,00
739,63	33081,00
740,08	33022,00
740,53	32811,00
740,97	32751,00
741,42	32739,00
741,86	33064,00
742,31	33124,00
742,76	33337,00
743,20	33425,00
743,65	33406,00
744,09	33342,00
744,54	33397,00
744,99	33658,00
745,43	33654,00
745,88	33512,00
746,32	33321,00
746,77	33120,00
747,22	33133,00
747,66	33058,00
748,11	33221,00
748,55	33096,00
749,00	33048,00
749,44	32937,00
749,89	33013,00
750,33	32860,00
750,78	32656,00
751,23	32658,00
751,67	32634,00
752,12	32408,00
752,56	32263,00
753,01	32431,00
753,45	32528,00
753,90	32552,00
754,34	32501,00
754,79	32418,00
755,23	32012,00
755,68	31900,00
756,12	31633,00
756,57	31638,00
757,01	31332,00
757,46	31034,00
757,90	30505,00
758,35	28462,00
758,79	23836,00
759,24	17744,00
759,68	11534,00
760,13	8833,00
760,57	9534,00
761,02	12192,00
761,46	14289,00
761,91	15080,00
762,35	13639,00
762,80	13025,00
763,24	13885,00
763,69	15417,00
764,13	16889,00
764,58	18785,00
765,02	20552,00
765,46	22190,00
765,91	23674,00
766,35	25138,00
766,80	26511,00
767,24	27790,00
767,69	28640,00
768,13	29371,00
768,58	29908,00
769,02	30349,00
769,46	30707,00
769,91	30840,00
770,35	31076,00
770,80	30951,00
771,24	30860,00
771,68	30574,00
772,13	30683,00
772,57	30911,00
773,02	30818,00
773,46	30748,00
773,90	30810,00
774,35	30883,00
774,79	30934,00
775,23	31312,00
775,68	31551,00
776,12	31380,00
776,57	31198,00
777,01	30797,00
777,45	30739,00
777,90	30551,00
778,34	30681,00
778,78	30471,00
779,23	30548,00
779,67	30614,00
780,11	30545,00
780,56	30814,00
781,00	30876,00
781,44	30808,00
781,89	30636,00
782,33	30525,00
782,77	30191,00
783,22	29735,00
783,66	29598,00
784,10	29566,00
784,55	29701,00
784,99	29756,00
785,43	29895,00
785,88	29842,00
786,32	29893,00
786,76	29763,00
787,20	29459,00
787,65	29342,00
788,09	28853,00
788,53	28724,00
788,97	28257,00
789,42	27954,00
789,86	28037,00
790,30	28064,00
790,75	28021,00
791,19	28163,00
791,63	28159,00
792,07	28171,00
792,52	28325,00
792,96	28148,00
793,40	27966,00
793,84	27905,00
794,29	27632,00
794,73	27446,00
795,17	27057,00
795,61	27027,00
796,05	27164,00
796,50	27526,00
796,94	27786,00
797,38	28022,00
797,82	28127,00
798,26	27886,00
798,71	27542,00
799,15	27258,00
799,59	26825,00
800,03	26395,00
800,47	26465,00
800,92	26596,00
801,36	26611,00
801,80	26676,00
802,24	26592,00
802,68	26790,00
803,13	27064,00
803,57	26901,00
804,01	26918,00
804,45	26789,00
804,89	26486,00
805,33	26428,00
805,77	26131,00
806,22	26141,00
806,66	26042,00
807,10	25920,00
807,54	26043,00
807,98	25956,00
808,42	25997,00
808,86	25938,00
809,31	26159,00
809,75	25724,00
810,19	25660,00
810,63	25518,00
811,07	25106,00
811,51	24378,00
811,95	23828,00
812,39	23110,00
812,83	22398,00
813,27	21789,00
813,72	21456,00
814,16	21138,00
814,60	21050,00
815,04	20664,00
815,48	20698,00
815,92	20672,00
816,36	20229,00
816,80	20339,00
817,24	20787,00
817,68	20131,00
818,12	20013,00
818,56	20264,00
819,00	20398,00
819,44	21108,00
819,88	21354,00
820,32	22295,00
820,77	22394,00
821,21	21633,00
821,65	20549,00
822,09	19774,00
822,53	19546,00
822,97	19542,00
823,41	21126,00
823,85	22328,00
824,29	22210,00
824,73	22367,00
825,17	22116,00
825,61	21873,00
826,05	21955,00
826,49	21738,00
826,93	21702,00
827,37	21354,00
827,81	21540,00
828,25	21982,00
828,69	21986,00
829,13	21853,00
829,57	22143,00
830,00	22058,00
830,44	21709,00
830,88	21553,00
831,32	21378,00
831,76	21200,00
832,20	21446,00
832,64	21846,00
833,08	22179,00
833,52	22572,00
833,96	22960,00
834,40	23555,00
834,84	23572,00
835,28	23373,00
835,72	23189,00
836,16	23041,00
836,60	22978,00
837,03	22857,00
837,47	22549,00
837,91	22888,00
838,35	23070,00
838,79	23222,00
839,23	23667,00
839,67	24086,00
840,11	24269,00
840,55	24262,00
840,99	24532,00
841,42	24292,00
841,86	24056,00
842,30	23825,00
842,74	23344,00
843,18	22929,00
843,62	22712,00
844,06	22784,00
844,49	22899,00
844,93	23249,00
845,37	23337,00
845,81	23837,00
846,25	23932,00
846,69	24248,00
847,12	24269,00
847,56	24543,00
848,00	24186,00
848,44	23570,00
848,88	23231,00
849,32	23057,00
849,75	22484,00
850,19	22399,00
850,63	22718,00
851,07	22375,00
851,51	22324,00
851,94	22330,00
852,38	21757,00
852,82	21185,00
853,26	21011,00
853,70	21172,00
854,13	21298,00
854,57	22534,00
855,01	23419,00
855,45	23659,00
855,88	23534,00
856,32	23440,00
856,76	22981,00
857,20	22666,00
857,63	22434,00
858,07	22173,00
858,51	22083,00
858,95	22431,00
859,38	22698,00
859,82	22955,00
860,26	23431,00
860,70	23871,00
861,13	23896,00
861,57	23790,00
862,01	23952,00
862,44	23623,00
862,88	23355,00
863,32	22863,00
863,76	22374,00
864,19	21852,00
864,63	21137,00
865,07	20600,00
865,50	20802,00
865,94	20340,00
866,38	21124,00
866,81	22261,00
867,25	22648,00
867,69	22888,00
868,12	23054,00
868,56	23144,00
869,00	22905,00
869,43	22663,00
869,87	22100,00
870,31	21639,00
870,74	21470,00
871,18	21216,00
871,62	21154,00
872,05	21314,00
872,49	21547,00
872,93	21766,00
873,36	22136,00
873,80	22399,00
874,23	22609,00
874,67	22751,00
875,11	22794,00
875,54	22732,00
875,98	22687,00
876,41	22458,00
876,85	22013,00
877,29	21542,00
877,72	21436,00
878,16	21287,00
878,59	20857,00
879,03	20594,00
879,47	20718,00
879,90	21016,00
880,34	21180,00
880,77	21641,00
881,21	22366,00
881,64	22708,00
882,08	23054,00
882,52	23115,00
882,95	22892,00
883,39	22678,00
883,82	22197,00
884,26	21685,00
884,69	21285,00
885,13	20994,00
885,56	20588,00
886,00	20355,00
886,43	20330,00
886,87	20648,00
887,30	20800,00
887,74	20977,00
888,17	21337,00
888,61	21786,00
889,04	21971,00
889,48	22151,00
889,91	22356,00
890,35	22451,00
890,78	22306,00
891,22	22081,00
891,65	21442,00
892,09	20862,00
892,52	20018,00
892,96	19293,00
893,39	18939,00
893,83	18451,00
894,26	17880,00
894,70	17364,00
895,13	17122,00
895,56	17385,00
896,00	17101,00
896,43	17437,00
896,87	17170,00
897,30	17034,00
897,74	17365,00
898,17	17204,00
898,61	15708,00
899,04	16243,00
899,47	16454,00
899,91	15698,00
900,34	15429,00
900,78	15454,00
901,21	15378,00
901,64	15738,00
902,08	16058,00
902,51	16664,00
902,95	17409,00
903,38	17948,00
903,81	17892,00
904,25	17996,00
904,68	17686,00
905,11	17624,00
905,55	17116,00
905,98	16701,00
906,42	16309,00
906,85	16110,00
907,28	16224,00
907,72	15692,00
908,15	15486,00
908,58	15203,00
909,02	14849,00
909,45	14926,00
909,88	14809,00
910,32	14784,00
910,75	15465,00
911,18	14884,00
911,62	14905,00
912,05	15548,00
912,48	15617,00
912,92	15507,00
913,35	15666,00
913,78	16083,00
914,21	16478,00
914,65	15799,00
915,08	14955,00
915,51	14898,00
915,95	14851,00
916,38	14989,00
916,81	14497,00
917,24	14756,00
917,68	15433,00
918,11	15922,00
918,54	16637,00
918,97	16747,00
919,41	16890,00
919,84	17257,00
920,27	17272,00
920,70	17470,00
921,14	17220,00
921,57	17426,00
922,00	17337,00
922,43	17009,00
922,87	16812,00
923,30	16220,00
923,73	16040,00
924,16	15698,00
924,60	15496,00
925,03	15313,00
925,46	14568,00
925,89	14116,00
926,32	14048,00
926,76	13419,00
927,19	12815,00
927,62	12167,00
928,05	11766,00
928,48	11683,00
928,91	11009,00
929,35	10466,00
929,78	9894,00
930,21	9066,00
930,64	8491,00
931,07	7747,00
931,50	6960,00
931,94	6407,00
932,37	6243,00
932,80	6022,00
933,23	5774,00
933,66	5499,00
934,09	5745,00
934,52	6178,00
934,96	5587,00
935,39	5605,00
935,82	5718,00
936,25	5563,00
936,68	5890,00
937,11	6487,00
937,54	6625,00
937,97	6925,00
938,40	7174,00
938,83	7408,00
939,27	6897,00
939,70	6528,00
940,13	6338,00
940,56	5960,00
940,99	5860,00
941,42	5882,00
941,85	5565,00
942,28	5161,00
942,71	5649,00
943,14	5579,00
943,57	5180,00
944,00	5494,00
944,43	5803,00
944,86	5700,00
945,29	5695,00
945,72	5849,00
946,16	6012,00
946,59	6383,00
947,02	6516,00
947,45	6072,00
947,88	6103,00
948,31	6510,00
948,74	6373,00
949,17	6137,00
949,60	5994,00
950,03	6312,00
950,46	6559,00
950,89	6401,00
951,32	6202,00
951,75	6496,00
952,18	6793,00
952,61	7217,00
953,04	7455,00
953,47	7392,00
953,89	7310,00
954,32	7581,00
954,75	7391,00
955,18	7757,00
955,61	7944,00
956,04	7572,00
956,47	7930,00
956,90	7955,00
957,33	7694,00
957,76	7809,00
958,19	7561,00
958,62	7533,00
959,05	8038,00
959,48	8400,00
959,91	8454,00
960,34	8797,00
960,76	9234,00
961,19	9349,00
961,62	9189,00
962,05	9701,00
962,48	10333,00
962,91	10166,00
963,34	10309,00
963,77	10117,00
964,20	9992,00
964,62	10252,00
965,05	10262,00
965,48	10221,00
965,91	10214,00
966,34	10633,00
966,77	11268,00
967,20	11042,00
967,62	11300,00
968,05	11601,00
968,48	11705,00
968,91	11682,00
969,34	11668,00
969,77	12036,00
970,19	12181,00
970,62	12179,00
971,05	12224,00
971,48	12048,00
971,91	12187,00
972,34	12090,00
972,76	11702,00
973,19	11691,00
973,62	11594,00
974,05	11340,00
974,48	11278,00
974,90	11164,00
975,33	10886,00
975,76	11049,00
976,19	11290,00
976,61	11281,00
977,04	11299,00
977,47	11545,00
977,90	11467,00
978,33	11816,00
978,75	12200,00
979,18	12360,00
979,61	12573,00
980,04	12975,00
980,46	13166,00
980,89	13189,00
981,32	13309,00
981,74	13315,00
982,17	13263,00
982,60	13249,00
983,03	13310,00
983,45	13217,00
983,88	12998,00
984,31	12876,00
984,73	12670,00
985,16	12572,00
985,59	12436,00
986,02	12263,00
986,44	12138,00
986,87	12272,00
987,30	12306,00
987,72	12455,00
988,15	12560,00
988,58	12730,00
989,00	12885,00
989,43	13100,00
989,86	13228,00
990,28	13302,00
990,71	13498,00
991,14	13433,00
991,56	13282,00
991,99	13115,00
992,41	12948,00
992,84	12888,00
993,27	12554,00
993,69	12492,00
994,12	12330,00
994,55	12092,00
994,97	12018,00
995,40	11925,00
995,82	11971,00
996,25	11840,00
996,68	11847,00
997,10	11833,00
997,53	11847,00
997,95	11890,00
998,38	11974,00
998,81	12113,00
999,23	12125,00
999,66	12197,00
1000,08	12283,00
1000,51	12284,00
1000,93	12220,00
1001,36	11913,00
1001,78	11802,00
1002,21	11501,00
1002,64	11289,00
1003,06	11053,00
1003,49	10896,00
1003,91	10618,00
1004,34	10523,00
1004,76	10421,00
1005,19	10513,00
1005,61	10464,00
1006,04	10583,00
1006,46	10528,00
1006,89	10434,00
1007,31	10590,00
1007,74	10623,00
1008,16	10606,00
1008,59	10634,00
1009,01	10680,00
1009,44	10644,00
1009,86	10724,00
1010,29	10695,00
1010,71	10657,00
1011,14	10562,00
1011,56	10385,00
1011,99	10442,00
1012,41	10177,00
1012,84	9874,00
1013,26	9815,00
1013,68	9686,00
1014,11	9552,00
1014,53	9448,00
1014,96	9439,00
1015,38	9457,00
1015,81	9468,00
1016,23	9510,00
1016,65	9994,00
1017,08	9823,00
1017,50	9832,00
1017,93	9890,00
1018,35	9993,00
1018,78	10024,00
1019,20	9912,00
1019,62	9958,00
1020,05	10076,00
1020,47	10093,00
1020,90	9987,00
1021,32	10134,00
1021,74	10136,00
1022,17	9910,00
1022,59	9904,00
1023,01	9846,00
1023,44	9616,00
1023,86	9563,00
1024,28	9458,00
1024,71	9466,00
1025,13	9362,00
1025,55	9300,00
1025,98	9319,00
1026,40	9317,00
1026,82	9324,00
1027,25	9286,00
1027,67	9421,00
1028,09	9498,00
1028,52	9458,00
1028,94	9557,00
1029,36	9486,00
1029,79	9429,00
1030,21	9379,00
1030,63	9366,00
1031,06	9259,00
1031,48	9163,00
1031,90	8934,00
1032,32	8815,00
1032,75	8700,00
1033,17	8560,00
1033,59	8518,00
1034,02	8335,00
1034,44	8295,00
1034,86	8129,00
1035,28	8061,00
1035,71	8072,00
1036,13	7915,00
1036,55	7890,00
1036,97	7893,00
1037,40	7915,00
1037,82	7964,00
1038,24	7914,00
1038,66	7889,00
1039,08	7924,00
1039,51	7904,00
1039,93	7855,00
1040,35	7785,00
1040,77	7808,00
1041,19	7625,00
1041,62	7618,00
1042,04	7442,00
1042,46	7427,00
1042,88	7202,00
1043,30	7157,00
1043,73	7055,00
1044,15	6963,00
1044,57	6831,00
1044,99	6766,00
1045,41	6688,00
1045,83	6673,00
1046,26	6609,00
1046,68	6531,00
1047,10	6541,00
1047,52	6481,00
1047,94	6534,00
1048,36	6480,00
1048,78	6418,00
1049,21	6461,00
1049,63	6451,00
1050,05	6431,00
1050,47	6351,00
1050,89	6362,00
1051,31	6302,00
1051,73	6177,00
1052,15	6250,00
1052,57	6121,00
1053,00	6150,00
1053,42	6047,00
1053,84	5966,00
1054,26	5907,00
1054,68	5899,00
1055,10	5817,00
1055,52	5724,00
1055,94	5708,00
1056,36	5629,00
1056,78	5450,00
1057,20	5440,00
1057,62	5491,00
1058,04	5419,00
1058,46	5325,00
1058,88	5287,00
1059,31	5245,00
1059,73	5134,00
1060,15	5177,00
1060,57	5193,00
1060,99	5125,00
1061,41	5027,00
1061,83	5053,00
1062,25	5070,00
1062,67	5158,00
1063,09	5011,00
1063,51	5094,00
1063,93	5021,00
1064,35	4992,00
1064,77	4892,00
1065,19	4846,00
1065,61	4858,00
1066,03	4814,00
1066,45	4725,00
1066,87	4699,00
1067,28	4637,00
1067,70	4607,00
1068,12	4540,00
1068,54	4581,00
1068,96	4490,00
1069,38	4514,00
1069,80	4492,00
1070,22	4467,00
1070,64	4376,00
1071,06	4386,00
1071,48	4348,00
1071,90	4375,00
1072,32	4441,00
1072,74	4384,00
1073,16	4355,00
1073,57	4312,00
1073,99	4330,00
1074,41	4321,00
1074,83	4309,00
1075,25	4253,00
1075,67	4227,00
1076,09	4236,00
1076,51	4218,00
1076,93	4158,00
1077,34	4133,00
1077,76	4093,00
1078,18	4070,00
1078,60	4037,00
1079,02	4018,00
1079,44	4022,00
1079,86	3932,00
1080,27	3925,00
1080,69	3883,00
1081,11	3880,00
1081,53	3860,00
1081,95	3826,00
1082,37	3846,00
1082,78	3805,00
1083,20	3784,00
1083,62	3768,00
1084,04	3733,00
1084,46	3718,00
1084,87	3730,00
1085,29	3756,00
1085,71	3751,00
1086,13	3978,00
1086,55	3694,00
1086,96	3706,00
1087,38	3670,00
1087,80	3654,00
1088,22	3619,00
1088,63	3576,00
1089,05	3562,00
1089,47	3549,00
1089,89	3479,00
1090,30	3458,00
1090,72	3465,00
1091,14	3437,00
1091,56	3390,00
1091,97	3330,00
1092,39	3302,00
1092,81	3330,00
1093,23	3342,00
1093,64	3272,00
1094,06	3260,00
1094,48	3284,00
1094,89	3250,00
1095,31	3247,00
1095,73	3212,00
1096,14	3207,00
1096,56	3162,00
1096,98	3158,00
1097,39	3160,00
1097,81	3134,00
1098,23	3125,00
1098,65	3120,00
1099,06	3098,00
1099,48	3052,00
1099,89	3033,00
1100,31	3014,00
1100,73	3000,00
1101,14	2960,00
1101,56	2962,00
1101,98	3029,00
1102,39	2914,00
1102,81	2901,00
1103,23	2925,00
1103,64	2884,00
1104,06	2871,00
1104,47	2913,00
1104,89	2885,00
1105,31	2874,00
1105,72	2839,00
1106,14	2799,00
1106,55	2810,00
1106,97	2802,00
1107,39	2761,00
1107,80	2753,00
1108,22	2736,00
1108,63	2691,00
1109,05	2707,00
1109,46	2693,00
1109,88	2692,00
1110,30	2680,00
1110,71	2639,00
1111,13	2632,00
1111,54	2609,00
1111,96	2616,00
1112,37	2572,00
1112,79	2542,00
1113,20	2546,00
1113,62	2526,00
1114,03	2497,00
1114,45	2491,00
1114,86	2431,00
1115,28	2432,00
1115,69	2176,00
1116,11	2179,00
1116,52	2181,00
1116,94	2174,00
>>>>>End Processed Spectral Data<<<<<
