SpectraSuite Data File
++++++++++++++++++++++++++++++++++++
Date: Tue Sep 01 10:28:21 EEST 2020
User: OO Maya
Dark Spectrum Present: No
Reference Spectrum Present: No
Number of Sampled Component Spectra: 1
Spectrometers: MAYP11278
Integration Time (usec): 150000 (MAYP11278)
Spectra Averaged: 1 (MAYP11278)
Boxcar Smoothing: 0 (MAYP11278)
Correct for Electrical Dark: No (MAYP11278)
Strobe/Lamp Enabled: No (MAYP11278)
Correct for Detector Non-linearity: No (MAYP11278)
Correct for Stray Light: No (MAYP11278)
Number of Pixels in Processed Spectrum: 2068
>>>>>Begin Processed Spectral Data<<<<<
187,69	2285,00
188,17	2207,00
188,64	2175,00
189,12	2177,00
189,60	2345,00
190,08	2378,00
190,55	2405,00
191,03	2429,00
191,51	2470,00
191,99	2447,00
192,46	2447,00
192,94	2452,00
193,42	2440,00
193,89	2431,00
194,37	2458,00
194,85	2432,00
195,33	2445,00
195,80	2443,00
196,28	2436,00
196,76	2467,00
197,24	2458,00
197,71	2441,00
198,19	2445,00
198,67	2447,00
199,14	2427,00
199,62	2456,00
200,10	2456,00
200,57	2440,00
201,05	2444,00
201,53	2441,00
202,01	2450,00
202,48	2438,00
202,96	2442,00
203,44	2425,00
203,91	2453,00
204,39	2439,00
204,87	2422,00
205,34	2432,00
205,82	2451,00
206,30	2436,00
206,77	2440,00
207,25	2468,00
207,73	2461,00
208,20	2451,00
208,68	2447,00
209,16	2438,00
209,63	2430,00
210,11	2442,00
210,59	2432,00
211,06	2428,00
211,54	2428,00
212,02	2427,00
212,49	2456,00
212,97	2441,00
213,45	2410,00
213,92	2448,00
214,40	2437,00
214,88	2434,00
215,35	2452,00
215,83	2445,00
216,30	2434,00
216,78	2441,00
217,26	2451,00
217,73	2433,00
218,21	2451,00
218,69	2422,00
219,16	2439,00
219,64	2423,00
220,11	2419,00
220,59	2476,00
221,07	2429,00
221,54	2435,00
222,02	2416,00
222,49	2433,00
222,97	2434,00
223,45	2434,00
223,92	2442,00
224,40	2442,00
224,87	2420,00
225,35	2430,00
225,83	2412,00
226,30	2412,00
226,78	2435,00
227,25	2430,00
227,73	2430,00
228,20	2449,00
228,68	2427,00
229,16	2431,00
229,63	2420,00
230,11	2427,00
230,58	2426,00
231,06	2445,00
231,53	2421,00
232,01	2434,00
232,49	2421,00
232,96	2430,00
233,44	2437,00
233,91	2464,00
234,39	2434,00
234,86	2433,00
235,34	2427,00
235,81	2423,00
236,29	2449,00
236,77	2444,00
237,24	2447,00
237,72	2411,00
238,19	2426,00
238,67	2422,00
239,14	2437,00
239,62	2409,00
240,09	2444,00
240,57	2462,00
241,04	2440,00
241,52	2435,00
241,99	2442,00
242,47	2454,00
242,94	2416,00
243,42	2441,00
243,89	2462,00
244,37	2454,00
244,84	2434,00
245,32	2449,00
245,79	2744,00
246,27	2426,00
246,74	2450,00
247,22	2436,00
247,69	2458,00
248,17	2451,00
248,64	2437,00
249,12	2443,00
249,59	2443,00
250,07	2454,00
250,54	2459,00
251,02	2460,00
251,49	2476,00
251,97	2466,00
252,44	2448,00
252,92	2472,00
253,39	2456,00
253,87	2443,00
254,34	2444,00
254,81	2456,00
255,29	2447,00
255,76	2445,00
256,24	2462,00
256,71	2456,00
257,19	2466,00
257,66	2465,00
258,14	2451,00
258,61	2452,00
259,08	2435,00
259,56	2452,00
260,03	2460,00
260,51	2443,00
260,98	2447,00
261,46	2448,00
261,93	2445,00
262,40	2454,00
262,88	2439,00
263,35	2448,00
263,83	2453,00
264,30	2471,00
264,78	2450,00
265,25	2461,00
265,72	2429,00
266,20	2455,00
266,67	2451,00
267,15	2449,00
267,62	2456,00
268,09	2474,00
268,57	2426,00
269,04	2457,00
269,51	2459,00
269,99	2465,00
270,46	2439,00
270,94	2438,00
271,41	2463,00
271,88	2444,00
272,36	2446,00
272,83	2447,00
273,31	2465,00
273,78	2480,00
274,25	2457,00
274,73	2465,00
275,20	2457,00
275,67	2470,00
276,15	2470,00
276,62	2452,00
277,09	2459,00
277,57	2440,00
278,04	2458,00
278,51	2500,00
278,99	2443,00
279,46	2442,00
279,93	2490,00
280,41	2467,00
280,88	2482,00
281,35	2448,00
281,83	2474,00
282,30	2433,00
282,77	2450,00
283,25	2475,00
283,72	2458,00
284,19	2460,00
284,67	2463,00
285,14	2461,00
285,61	2468,00
286,09	2466,00
286,56	2454,00
287,03	2465,00
287,51	2481,00
287,98	2465,00
288,45	2461,00
288,92	2442,00
289,40	2475,00
289,87	2448,00
290,34	2473,00
290,82	2445,00
291,29	2460,00
291,76	2468,00
292,23	2470,00
292,71	2456,00
293,18	2458,00
293,65	2472,00
294,13	2485,00
294,60	2451,00
295,07	2479,00
295,54	2479,00
296,02	2491,00
296,49	2504,00
296,96	2488,00
297,43	2484,00
297,91	2472,00
298,38	2456,00
298,85	2483,00
299,32	2482,00
299,80	2465,00
300,27	2499,00
300,74	2495,00
301,21	2477,00
301,69	2481,00
302,16	2466,00
302,63	2480,00
303,10	2515,00
303,58	2485,00
304,05	2486,00
304,52	2499,00
304,99	2522,00
305,46	2521,00
305,94	2546,00
306,41	2562,00
306,88	2575,00
307,35	2598,00
307,82	2597,00
308,30	2613,00
308,77	2635,00
309,24	2648,00
309,71	2687,00
310,18	2791,00
310,66	2817,00
311,13	2814,00
311,60	2872,00
312,07	2921,00
312,54	2965,00
313,02	2965,00
313,49	3037,00
313,96	3023,00
314,43	3132,00
314,90	3094,00
315,37	3102,00
315,85	3161,00
316,32	3281,00
316,79	3398,00
317,26	3375,00
317,73	3357,00
318,20	3484,00
318,68	3516,00
319,15	3562,00
319,62	3623,00
320,09	3781,00
320,56	3768,00
321,03	3688,00
321,50	3727,00
321,98	3683,00
322,45	3732,00
322,92	3789,00
323,39	3908,00
323,86	3941,00
324,33	3930,00
324,80	4125,00
325,27	4329,00
325,75	4527,00
326,22	4594,00
326,69	4733,00
327,16	4670,00
327,63	4727,00
328,10	4732,00
328,57	4952,00
329,04	5102,00
329,51	5099,00
329,98	4877,00
330,46	4670,00
330,93	4619,00
331,40	4619,00
331,87	4716,00
332,34	4779,00
332,81	4916,00
333,28	5005,00
333,75	5156,00
334,22	5312,00
334,69	5444,00
335,16	5668,00
335,63	5476,00
336,10	5372,00
336,58	5133,00
337,05	5163,00
337,52	5257,00
337,99	5440,00
338,46	5539,00
338,93	5485,00
339,40	5632,00
339,87	5690,00
340,34	5478,00
340,81	5548,00
341,28	5581,00
341,75	5691,00
342,22	5719,00
342,69	5774,00
343,16	5514,00
343,63	5188,00
344,10	5155,00
344,57	5581,00
345,04	5696,00
345,51	5605,00
345,98	5602,00
346,45	5645,00
346,92	5698,00
347,39	5508,00
347,86	5660,00
348,33	5643,00
348,80	5569,00
349,27	5740,00
349,74	6109,00
350,21	6117,00
350,68	5863,00
351,15	5961,00
351,62	5975,00
352,09	5770,00
352,56	5981,00
353,03	6165,00
353,50	6362,00
353,97	6367,00
354,44	6412,00
354,91	6257,00
355,38	6110,00
355,85	5931,00
356,32	5641,00
356,79	5523,00
357,26	5599,00
357,73	5366,00
358,20	5396,00
358,67	5901,00
359,14	6324,00
359,61	6289,00
360,08	6069,00
360,55	5877,00
361,02	5997,00
361,48	6086,00
361,95	6338,00
362,42	6485,00
362,89	6399,00
363,36	6559,00
363,83	6700,00
364,30	6526,00
364,77	6887,00
365,24	7393,00
365,71	7335,00
366,18	7224,00
366,65	7250,00
367,12	7373,00
367,58	7095,00
368,05	7117,00
368,52	7263,00
368,99	7539,00
369,46	7528,00
369,93	7342,00
370,40	7205,00
370,87	7684,00
371,34	7352,00
371,80	6909,00
372,27	7010,00
372,74	6844,00
373,21	6503,00
373,68	6785,00
374,15	6762,00
374,62	6987,00
375,09	7493,00
375,55	7674,00
376,02	7636,00
376,49	7949,00
376,96	8460,00
377,43	8785,00
377,90	8747,00
378,37	8311,00
378,83	8011,00
379,30	7854,00
379,77	8264,00
380,24	8490,00
380,71	8218,00
381,18	7601,00
381,64	7027,00
382,11	6753,00
382,58	6582,00
383,05	6707,00
383,52	7112,00
383,99	7801,00
384,45	8184,00
384,92	8321,00
385,39	7905,00
385,86	8192,00
386,33	8380,00
386,79	8318,00
387,26	8415,00
387,73	8483,00
388,20	8799,00
388,67	9190,00
389,13	9837,00
389,60	10104,00
390,07	10098,00
390,54	10459,00
391,01	10355,00
391,47	9645,00
391,94	8723,00
392,41	7747,00
392,88	7089,00
393,34	7828,00
393,81	9286,00
394,28	10175,00
394,75	10612,00
395,22	10418,00
395,68	9603,00
396,15	8605,00
396,62	8605,00
397,09	10633,00
397,55	12472,00
398,02	13322,00
398,49	14021,00
398,96	14435,00
399,42	14645,00
399,89	14906,00
400,36	15112,00
400,82	15608,00
401,29	15762,00
401,76	15842,00
402,23	15850,00
402,69	15673,00
403,16	15703,00
403,63	15909,00
404,10	15425,00
404,56	15641,00
405,03	15799,00
405,50	15584,00
405,96	15570,00
406,43	15864,00
406,90	16106,00
407,36	16337,00
407,83	17049,00
408,30	17178,00
408,77	16958,00
409,23	16523,00
409,70	16138,00
410,17	16826,00
410,63	17762,00
411,10	18323,00
411,57	18282,00
412,03	18249,00
412,50	18157,00
412,97	18114,00
413,43	18655,00
413,90	18563,00
414,37	18552,00
414,83	18732,00
415,30	18687,00
415,77	19071,00
416,23	19041,00
416,70	18607,00
417,16	18326,00
417,63	18615,00
418,10	18611,00
418,56	18744,00
419,03	18894,00
419,50	18873,00
419,96	19376,00
420,43	19950,00
420,90	19930,00
421,36	19651,00
421,83	19328,00
422,29	18827,00
422,76	19407,00
423,23	19611,00
423,69	19800,00
424,16	19798,00
424,62	19508,00
425,09	19724,00
425,56	19725,00
426,02	19774,00
426,49	19472,00
426,95	18921,00
427,42	19679,00
427,89	19456,00
428,35	18902,00
428,82	18201,00
429,28	17211,00
429,75	16368,00
430,21	16791,00
430,68	18066,00
431,15	20224,00
431,61	21584,00
432,08	20968,00
432,54	21024,00
433,01	21278,00
433,47	20702,00
433,94	20780,00
434,40	22075,00
434,87	22492,00
435,34	23005,00
435,80	23381,00
436,27	23333,00
436,73	22894,00
437,20	22175,00
437,66	21885,00
438,13	21511,00
438,59	22550,00
439,06	23168,00
439,52	23357,00
439,99	23429,00
440,45	24057,00
440,92	24747,00
441,38	25245,00
441,85	25545,00
442,31	25433,00
442,78	25603,00
443,24	25659,00
443,71	26014,00
444,17	25974,00
444,64	25737,00
445,10	25280,00
445,57	25200,00
446,03	26048,00
446,50	26877,00
446,96	27342,00
447,43	27707,00
447,89	27374,00
448,36	27888,00
448,82	28137,00
449,29	28714,00
449,75	29335,00
450,22	29717,00
450,68	29481,00
451,15	28997,00
451,61	28607,00
452,07	28051,00
452,54	27669,00
453,00	28145,00
453,47	28738,00
453,93	29216,00
454,40	29026,00
454,86	29136,00
455,33	29798,00
455,79	30255,00
456,25	30251,00
456,72	30479,00
457,18	30372,00
457,65	29904,00
458,11	29894,00
458,58	30272,00
459,04	30159,00
459,50	30405,00
459,97	30903,00
460,43	31164,00
460,90	31743,00
461,36	31514,00
461,82	31773,00
462,29	31864,00
462,75	31542,00
463,22	31391,00
463,68	31108,00
464,14	31099,00
464,61	31108,00
465,07	31453,00
465,53	31488,00
466,00	30940,00
466,46	30724,00
466,93	31347,00
467,39	31615,00
467,85	31758,00
468,32	31783,00
468,78	31870,00
469,24	31408,00
469,71	31081,00
470,17	31203,00
470,63	31729,00
471,10	32441,00
471,56	33024,00
472,02	32980,00
472,49	32568,00
472,95	32561,00
473,41	33070,00
473,88	33426,00
474,34	33417,00
474,80	33141,00
475,27	32927,00
475,73	32539,00
476,19	32856,00
476,66	33619,00
477,12	34116,00
477,58	34034,00
478,05	33837,00
478,51	34062,00
478,97	34392,00
479,44	34540,00
479,90	34512,00
480,36	34739,00
480,82	34874,00
481,29	35285,00
481,75	34952,00
482,21	34654,00
482,68	34680,00
483,14	34651,00
483,60	34329,00
484,06	34100,00
484,53	33343,00
484,99	31656,00
485,45	29722,00
485,91	29864,00
486,38	31584,00
486,84	32650,00
487,30	33632,00
487,76	33843,00
488,23	33560,00
488,69	34034,00
489,15	35412,00
489,61	35540,00
490,08	35372,00
490,54	34931,00
491,00	34144,00
491,46	33795,00
491,93	34285,00
492,39	35313,00
492,85	35313,00
493,31	35286,00
493,77	36065,00
494,24	36259,00
494,70	36253,00
495,16	35680,00
495,62	36030,00
496,08	36415,00
496,55	36532,00
497,01	36331,00
497,47	35600,00
497,93	35020,00
498,39	35758,00
498,86	36237,00
499,32	35804,00
499,78	35066,00
500,24	34834,00
500,70	34718,00
501,17	34604,00
501,63	34878,00
502,09	35547,00
502,55	35910,00
503,01	35579,00
503,47	34958,00
503,93	35631,00
504,40	36214,00
504,86	36866,00
505,32	37286,00
505,78	37240,00
506,24	36719,00
506,70	36440,00
507,17	36171,00
507,63	35992,00
508,09	36759,00
508,55	37442,00
509,01	37180,00
509,47	36754,00
509,93	36765,00
510,39	36985,00
510,86	37706,00
511,32	37743,00
511,78	37112,00
512,24	36569,00
512,70	36718,00
513,16	36441,00
513,62	36103,00
514,08	36525,00
514,54	36795,00
515,00	37026,00
515,47	36564,00
515,93	34592,00
516,39	32515,00
516,85	33031,00
517,31	34891,00
517,77	34214,00
518,23	34824,00
518,69	35811,00
519,15	36801,00
519,61	37497,00
520,07	37004,00
520,53	37270,00
520,99	38129,00
521,45	38000,00
521,91	37700,00
522,38	37208,00
522,84	37897,00
523,30	38979,00
523,76	39593,00
524,22	39257,00
524,68	39145,00
525,14	38869,00
525,60	37782,00
526,06	35788,00
526,52	35769,00
526,98	37281,00
527,44	38571,00
527,90	39253,00
528,36	40364,00
528,82	40470,00
529,28	39740,00
529,74	39713,00
530,20	40883,00
530,66	41000,00
531,12	40409,00
531,58	39803,00
532,04	38580,00
532,50	38304,00
532,96	39557,00
533,42	39780,00
533,88	39754,00
534,34	40054,00
534,80	40888,00
535,26	41288,00
535,72	40730,00
536,18	39582,00
536,64	39350,00
537,10	40409,00
537,56	40673,00
538,02	40653,00
538,47	40354,00
538,93	39866,00
539,39	39482,00
539,85	38755,00
540,31	38935,00
540,77	39721,00
541,23	40448,00
541,69	40354,00
542,15	40318,00
542,61	40008,00
543,07	40229,00
543,53	41306,00
543,99	40891,00
544,45	40726,00
544,90	41132,00
545,36	40907,00
545,82	40758,00
546,28	41132,00
546,74	40833,00
547,20	40156,00
547,66	40457,00
548,12	41023,00
548,58	41168,00
549,04	41377,00
549,49	41463,00
549,95	41135,00
550,41	41155,00
550,87	41343,00
551,33	41812,00
551,79	41707,00
552,25	41265,00
552,71	41116,00
553,16	41628,00
553,62	41659,00
554,08	41755,00
554,54	42092,00
555,00	41890,00
555,46	41785,00
555,92	41302,00
556,37	40757,00
556,83	40816,00
557,29	41114,00
557,75	41258,00
558,21	40218,00
558,67	39924,00
559,12	40476,00
559,58	40577,00
560,04	41401,00
560,50	42190,00
560,96	41155,00
561,41	40765,00
561,87	41168,00
562,33	41519,00
562,79	41804,00
563,25	41268,00
563,71	41184,00
564,16	41500,00
564,62	41538,00
565,08	40784,00
565,54	40517,00
565,99	40964,00
566,45	41587,00
566,91	41912,00
567,37	41680,00
567,83	40985,00
568,28	40588,00
568,74	40940,00
569,20	41286,00
569,66	40762,00
570,11	40301,00
570,57	39655,00
571,03	40537,00
571,49	41350,00
571,94	41730,00
572,40	41682,00
572,86	41548,00
573,32	41725,00
573,77	41746,00
574,23	41233,00
574,69	40965,00
575,15	40689,00
575,60	41013,00
576,06	41219,00
576,52	41625,00
576,97	41330,00
577,43	41153,00
577,89	40661,00
578,35	41009,00
578,80	41321,00
579,26	41773,00
579,72	42226,00
580,17	42256,00
580,63	42062,00
581,09	42588,00
581,54	42992,00
582,00	43296,00
582,46	43361,00
582,91	43175,00
583,37	43286,00
583,83	43301,00
584,28	43183,00
584,74	42916,00
585,20	42318,00
585,65	42332,00
586,11	42769,00
586,57	43108,00
587,02	42799,00
587,48	42426,00
587,94	41033,00
588,39	38752,00
588,85	37621,00
589,31	38464,00
589,76	40343,00
590,22	41361,00
590,68	41457,00
591,13	41290,00
591,59	41148,00
592,04	41568,00
592,50	41620,00
592,96	41976,00
593,41	41764,00
593,87	41291,00
594,33	40995,00
594,78	41310,00
595,24	41690,00
595,69	42315,00
596,15	42312,00
596,61	42085,00
597,06	41949,00
597,52	41859,00
597,97	41612,00
598,43	42127,00
598,88	42389,00
599,34	42375,00
599,80	42348,00
600,25	41923,00
600,71	41913,00
601,16	42027,00
601,62	41762,00
602,07	41928,00
602,53	42686,00
602,99	42954,00
603,44	43124,00
603,90	43085,00
604,35	43222,00
604,81	43019,00
605,26	42800,00
605,72	42889,00
606,17	42706,00
606,63	43043,00
607,08	42833,00
607,54	42573,00
607,99	42716,00
608,45	42383,00
608,90	42649,00
609,36	42500,00
609,81	42080,00
610,27	42288,00
610,72	42857,00
611,18	42797,00
611,63	42788,00
612,09	42231,00
612,54	42809,00
613,00	42372,00
613,45	41801,00
613,91	42284,00
614,36	42706,00
614,82	42909,00
615,27	42388,00
615,73	41448,00
616,18	41440,00
616,64	41993,00
617,09	42712,00
617,55	43291,00
618,00	43367,00
618,46	43283,00
618,91	42960,00
619,36	43718,00
619,82	43962,00
620,27	44240,00
620,73	43874,00
621,18	43365,00
621,64	43401,00
622,09	43630,00
622,55	42986,00
623,00	43160,00
623,45	43260,00
623,91	42799,00
624,36	42602,00
624,82	42520,00
625,27	42280,00
625,72	42829,00
626,18	43107,00
626,63	43342,00
627,09	42340,00
627,54	40849,00
627,99	41773,00
628,45	42303,00
628,90	42185,00
629,36	41875,00
629,81	42034,00
630,26	42505,00
630,72	42663,00
631,17	42196,00
631,62	42223,00
632,08	43021,00
632,53	43452,00
632,99	43070,00
633,44	42802,00
633,89	43095,00
634,35	43477,00
634,80	43682,00
635,25	43560,00
635,71	43174,00
636,16	43498,00
636,61	44024,00
637,07	44042,00
637,52	44255,00
637,97	44083,00
638,43	44126,00
638,88	43940,00
639,33	43603,00
639,79	43677,00
640,24	43587,00
640,69	43462,00
641,15	43316,00
641,60	43374,00
642,05	43832,00
642,50	44119,00
642,96	44048,00
643,41	43687,00
643,86	44101,00
644,32	43936,00
644,77	43489,00
645,22	43542,00
645,67	43132,00
646,13	43024,00
646,58	42809,00
647,03	42373,00
647,48	42546,00
647,94	42432,00
648,39	42702,00
648,84	42018,00
649,30	41315,00
649,75	42810,00
650,20	43660,00
650,65	43478,00
651,10	42854,00
651,56	42350,00
652,01	43313,00
652,46	43652,00
652,91	43539,00
653,37	43308,00
653,82	43429,00
654,27	42514,00
654,72	42013,00
655,18	40380,00
655,63	37750,00
656,08	36072,00
656,53	39053,00
656,98	41081,00
657,44	42310,00
657,89	43129,00
658,34	43111,00
658,79	42892,00
659,24	42988,00
659,69	43276,00
660,15	43661,00
660,60	43814,00
661,05	44115,00
661,50	44455,00
661,95	44225,00
662,41	43873,00
662,86	43366,00
663,31	43529,00
663,76	43763,00
664,21	43818,00
664,66	44224,00
665,11	43893,00
665,57	43861,00
666,02	43564,00
666,47	43767,00
666,92	43794,00
667,37	43705,00
667,82	43844,00
668,27	44030,00
668,73	44046,00
669,18	43604,00
669,63	43676,00
670,08	43663,00
670,53	43657,00
670,98	43423,00
671,43	43109,00
671,88	43288,00
672,33	43553,00
672,78	43595,00
673,24	43472,00
673,69	43426,00
674,14	43386,00
674,59	43150,00
675,04	43386,00
675,49	43689,00
675,94	43634,00
676,39	43351,00
676,84	43217,00
677,29	43413,00
677,74	43385,00
678,19	43490,00
678,64	43365,00
679,10	43516,00
679,55	43450,00
680,00	43246,00
680,45	43339,00
680,90	43002,00
681,35	43222,00
681,80	43186,00
682,25	42929,00
682,70	43107,00
683,15	43163,00
683,60	42338,00
684,05	42257,00
684,50	42302,00
684,95	42268,00
685,40	41592,00
685,85	40301,00
686,30	35868,00
686,75	30720,00
687,20	31020,00
687,65	34260,00
688,10	35961,00
688,55	35274,00
689,00	35276,00
689,45	35904,00
689,90	36495,00
690,35	37303,00
690,80	37905,00
691,25	38163,00
691,70	38753,00
692,15	38696,00
692,60	38505,00
693,05	38605,00
693,50	38401,00
693,95	38387,00
694,39	38697,00
694,84	39307,00
695,29	39380,00
695,74	39806,00
696,19	40634,00
696,64	41114,00
697,09	40716,00
697,54	40162,00
697,99	40123,00
698,44	39495,00
698,89	39480,00
699,34	39600,00
699,79	39385,00
700,24	39087,00
700,68	38945,00
701,13	38641,00
701,58	38642,00
702,03	38662,00
702,48	39075,00
702,93	39793,00
703,38	40001,00
703,83	39962,00
704,28	40488,00
704,72	40147,00
705,17	39814,00
705,62	39993,00
706,07	39994,00
706,52	40046,00
706,97	40378,00
707,42	40649,00
707,87	40403,00
708,31	40295,00
708,76	40209,00
709,21	40012,00
709,66	40269,00
710,11	40190,00
710,56	40212,00
711,00	40300,00
711,45	40358,00
711,90	40229,00
712,35	40104,00
712,80	39798,00
713,25	39663,00
713,69	39560,00
714,14	39229,00
714,59	38728,00
715,04	38676,00
715,49	38364,00
715,93	36958,00
716,38	34709,00
716,83	32775,00
717,28	31440,00
717,73	30791,00
718,17	29809,00
718,62	29358,00
719,07	29538,00
719,52	29547,00
719,96	30149,00
720,41	31910,00
720,86	34106,00
721,31	35380,00
721,75	35320,00
722,20	34729,00
722,65	33208,00
723,10	31862,00
723,54	31080,00
723,99	31032,00
724,44	31427,00
724,89	31457,00
725,33	31620,00
725,78	32038,00
726,23	32080,00
726,68	32097,00
727,12	31449,00
727,57	31430,00
728,02	31998,00
728,46	32006,00
728,91	31637,00
729,36	32373,00
729,81	32732,00
730,25	32788,00
730,70	33124,00
731,15	33609,00
731,59	34355,00
732,04	35180,00
732,49	35609,00
732,93	36074,00
733,38	36704,00
733,83	37296,00
734,27	37204,00
734,72	37328,00
735,17	37328,00
735,61	37111,00
736,06	37144,00
736,51	37208,00
736,95	37805,00
737,40	37716,00
737,85	37455,00
738,29	37302,00
738,74	37537,00
739,19	37865,00
739,63	38034,00
740,08	38196,00
740,53	38031,00
740,97	37841,00
741,42	37986,00
741,86	37916,00
742,31	38120,00
742,76	38309,00
743,20	38741,00
743,65	38506,00
744,09	38436,00
744,54	38576,00
744,99	38732,00
745,43	38834,00
745,88	38413,00
746,32	38618,00
746,77	38408,00
747,22	38152,00
747,66	38291,00
748,11	38387,00
748,55	38151,00
749,00	38136,00
749,44	38142,00
749,89	38107,00
750,33	37952,00
750,78	37800,00
751,23	37486,00
751,67	37796,00
752,12	37384,00
752,56	37456,00
753,01	37516,00
753,45	37492,00
753,90	37657,00
754,34	37624,00
754,79	37548,00
755,23	37287,00
755,68	37069,00
756,12	36557,00
756,57	36371,00
757,01	36332,00
757,46	35955,00
757,90	35445,00
758,35	33145,00
758,79	27716,00
759,24	20353,00
759,68	13070,00
760,13	10018,00
760,57	10586,00
761,02	13789,00
761,46	16323,00
761,91	17284,00
762,35	15625,00
762,80	14819,00
763,24	15677,00
763,69	17346,00
764,13	19324,00
764,58	21491,00
765,02	23584,00
765,46	25233,00
765,91	27001,00
766,35	28812,00
766,80	30397,00
767,24	31757,00
767,69	32954,00
768,13	33780,00
768,58	34326,00
769,02	34788,00
769,46	35095,00
769,91	35609,00
770,35	35610,00
770,80	35698,00
771,24	35329,00
771,68	35341,00
772,13	35554,00
772,57	35684,00
773,02	35630,00
773,46	35517,00
773,90	35425,00
774,35	35694,00
774,79	35690,00
775,23	35830,00
775,68	36166,00
776,12	36106,00
776,57	35876,00
777,01	35535,00
777,45	35162,00
777,90	35083,00
778,34	35081,00
778,78	35134,00
779,23	35248,00
779,67	35325,00
780,11	35146,00
780,56	35361,00
781,00	35449,00
781,44	35404,00
781,89	35252,00
782,33	34900,00
782,77	34533,00
783,22	34217,00
783,66	34196,00
784,10	34058,00
784,55	34158,00
784,99	34270,00
785,43	34336,00
785,88	34200,00
786,32	34161,00
786,76	33983,00
787,20	33977,00
787,65	33535,00
788,09	33192,00
788,53	32902,00
788,97	32654,00
789,42	32176,00
789,86	32164,00
790,30	32089,00
790,75	32180,00
791,19	32410,00
791,63	32480,00
792,07	32375,00
792,52	32526,00
792,96	32339,00
793,40	32076,00
793,84	31755,00
794,29	31452,00
794,73	31321,00
795,17	31290,00
795,61	31098,00
796,05	31151,00
796,50	31641,00
796,94	32037,00
797,38	32189,00
797,82	32280,00
798,26	31906,00
798,71	31622,00
799,15	31212,00
799,59	30686,00
800,03	30285,00
800,47	30491,00
800,92	30463,00
801,36	30351,00
801,80	30429,00
802,24	30823,00
802,68	30863,00
803,13	31158,00
803,57	30956,00
804,01	30970,00
804,45	30532,00
804,89	30465,00
805,33	30298,00
805,77	30043,00
806,22	29975,00
806,66	29750,00
807,10	29746,00
807,54	29765,00
807,98	29822,00
808,42	29782,00
808,86	29614,00
809,31	30053,00
809,75	29525,00
810,19	29439,00
810,63	29017,00
811,07	28673,00
811,51	28091,00
811,95	27278,00
812,39	26405,00
812,83	26003,00
813,27	24822,00
813,72	24537,00
814,16	24279,00
814,60	24064,00
815,04	23622,00
815,48	23481,00
815,92	23499,00
816,36	23300,00
816,80	23215,00
817,24	23605,00
817,68	23094,00
818,12	22900,00
818,56	23188,00
819,00	23200,00
819,44	24044,00
819,88	24432,00
820,32	25514,00
820,77	25708,00
821,21	24694,00
821,65	23734,00
822,09	22713,00
822,53	22193,00
822,97	22192,00
823,41	24135,00
823,85	25366,00
824,29	25509,00
824,73	25556,00
825,17	25490,00
825,61	24966,00
826,05	25012,00
826,49	24729,00
826,93	24819,00
827,37	24215,00
827,81	24470,00
828,25	24872,00
828,69	25032,00
829,13	24992,00
829,57	25033,00
830,00	25227,00
830,44	24720,00
830,88	24613,00
831,32	24622,00
831,76	24160,00
832,20	24365,00
832,64	24930,00
833,08	25263,00
833,52	25871,00
833,96	26328,00
834,40	26936,00
834,84	26858,00
835,28	27040,00
835,72	26596,00
836,16	26289,00
836,60	26124,00
837,03	26230,00
837,47	25964,00
837,91	26163,00
838,35	26354,00
838,79	26695,00
839,23	27045,00
839,67	27570,00
840,11	27738,00
840,55	28035,00
840,99	27999,00
841,42	27763,00
841,86	27603,00
842,30	27235,00
842,74	26674,00
843,18	26386,00
843,62	26070,00
844,06	26067,00
844,49	26238,00
844,93	26490,00
845,37	26900,00
845,81	27295,00
846,25	27552,00
846,69	27731,00
847,12	27874,00
847,56	28042,00
848,00	27771,00
848,44	27266,00
848,88	26760,00
849,32	26479,00
849,75	25581,00
850,19	25788,00
850,63	26051,00
851,07	25925,00
851,51	25600,00
851,94	25602,00
852,38	25063,00
852,82	24306,00
853,26	24283,00
853,70	24242,00
854,13	24315,00
854,57	25805,00
855,01	26979,00
855,45	27173,00
855,88	27220,00
856,32	26890,00
856,76	26462,00
857,20	26008,00
857,63	25638,00
858,07	25673,00
858,51	25512,00
858,95	25794,00
859,38	26120,00
859,82	26634,00
860,26	26865,00
860,70	27306,00
861,13	27382,00
861,57	27459,00
862,01	27403,00
862,44	27257,00
862,88	26883,00
863,32	26408,00
863,76	25900,00
864,19	25452,00
864,63	24360,00
865,07	23822,00
865,50	24064,00
865,94	23549,00
866,38	24290,00
866,81	25400,00
867,25	26241,00
867,69	26269,00
868,12	26709,00
868,56	26711,00
869,00	26569,00
869,43	26110,00
869,87	25572,00
870,31	25083,00
870,74	24762,00
871,18	24328,00
871,62	24489,00
872,05	24536,00
872,49	24904,00
872,93	25247,00
873,36	25621,00
873,80	26039,00
874,23	26153,00
874,67	26361,00
875,11	26290,00
875,54	26209,00
875,98	26061,00
876,41	25632,00
876,85	25234,00
877,29	24819,00
877,72	24410,00
878,16	24203,00
878,59	23816,00
879,03	23655,00
879,47	23760,00
879,90	24061,00
880,34	24399,00
880,77	24906,00
881,21	25643,00
881,64	26047,00
882,08	26334,00
882,52	26715,00
882,95	26469,00
883,39	25965,00
883,82	25334,00
884,26	24950,00
884,69	24532,00
885,13	24026,00
885,56	23386,00
886,00	23250,00
886,43	23195,00
886,87	23495,00
887,30	23784,00
887,74	24011,00
888,17	24383,00
888,61	24851,00
889,04	25084,00
889,48	25228,00
889,91	25571,00
890,35	25649,00
890,78	25628,00
891,22	25207,00
891,65	24581,00
892,09	23757,00
892,52	22924,00
892,96	22090,00
893,39	21660,00
893,83	21040,00
894,26	20609,00
894,70	19960,00
895,13	19542,00
895,56	19772,00
896,00	19440,00
896,43	19901,00
896,87	19619,00
897,30	19241,00
897,74	19736,00
898,17	19643,00
898,61	17855,00
899,04	18503,00
899,47	18735,00
899,91	18005,00
900,34	17612,00
900,78	17410,00
901,21	17491,00
901,64	17975,00
902,08	18349,00
902,51	19034,00
902,95	19926,00
903,38	20557,00
903,81	20513,00
904,25	20711,00
904,68	20378,00
905,11	20203,00
905,55	19720,00
905,98	19328,00
906,42	18819,00
906,85	18394,00
907,28	18377,00
907,72	17837,00
908,15	17637,00
908,58	17305,00
909,02	17017,00
909,45	17042,00
909,88	17068,00
910,32	16807,00
910,75	17723,00
911,18	17269,00
911,62	16934,00
912,05	17666,00
912,48	17585,00
912,92	17675,00
913,35	17891,00
913,78	18284,00
914,21	18668,00
914,65	17914,00
915,08	16947,00
915,51	16845,00
915,95	16667,00
916,38	17122,00
916,81	16526,00
917,24	16643,00
917,68	17282,00
918,11	18023,00
918,54	18856,00
918,97	18952,00
919,41	19104,00
919,84	19601,00
920,27	19740,00
920,70	19751,00
921,14	19635,00
921,57	19882,00
922,00	19594,00
922,43	19187,00
922,87	18971,00
923,30	18349,00
923,73	18167,00
924,16	17729,00
924,60	17595,00
925,03	17263,00
925,46	16644,00
925,89	16123,00
926,32	15736,00
926,76	15079,00
927,19	14579,00
927,62	13758,00
928,05	13211,00
928,48	13138,00
928,91	12501,00
929,35	11745,00
929,78	11002,00
930,21	10223,00
930,64	9415,00
931,07	8626,00
931,50	7697,00
931,94	7072,00
932,37	6828,00
932,80	6582,00
933,23	6340,00
933,66	5992,00
934,09	6239,00
934,52	6719,00
934,96	6122,00
935,39	6053,00
935,82	6323,00
936,25	6074,00
936,68	6380,00
937,11	6956,00
937,54	7322,00
937,97	7617,00
938,40	8009,00
938,83	8109,00
939,27	7654,00
939,70	7103,00
940,13	6907,00
940,56	6542,00
940,99	6343,00
941,42	6339,00
941,85	6038,00
942,28	5599,00
942,71	6076,00
943,14	6095,00
943,57	5755,00
944,00	5895,00
944,43	6324,00
944,86	6262,00
945,29	6238,00
945,72	6399,00
946,16	6589,00
946,59	6978,00
947,02	7021,00
947,45	6604,00
947,88	6652,00
948,31	7110,00
948,74	6959,00
949,17	6668,00
949,60	6619,00
950,03	6987,00
950,46	7176,00
950,89	6998,00
951,32	6889,00
951,75	7126,00
952,18	7411,00
952,61	8024,00
953,04	8374,00
953,47	8163,00
953,89	8251,00
954,32	8354,00
954,75	8172,00
955,18	8669,00
955,61	8808,00
956,04	8405,00
956,47	8764,00
956,90	8794,00
957,33	8432,00
957,76	8563,00
958,19	8351,00
958,62	8284,00
959,05	8936,00
959,48	9273,00
959,91	9313,00
960,34	9792,00
960,76	10331,00
961,19	10411,00
961,62	10278,00
962,05	10957,00
962,48	11475,00
962,91	11391,00
963,34	11503,00
963,77	11219,00
964,20	11196,00
964,62	11483,00
965,05	11518,00
965,48	11332,00
965,91	11415,00
966,34	11920,00
966,77	12619,00
967,20	12548,00
967,62	12794,00
968,05	12868,00
968,48	13192,00
968,91	13249,00
969,34	13166,00
969,77	13455,00
970,19	13493,00
970,62	13737,00
971,05	13793,00
971,48	13553,00
971,91	13654,00
972,34	13653,00
972,76	13111,00
973,19	13108,00
973,62	12824,00
974,05	12644,00
974,48	12614,00
974,90	12485,00
975,33	12261,00
975,76	12365,00
976,19	12638,00
976,61	12605,00
977,04	12580,00
977,47	12799,00
977,90	12885,00
978,33	13139,00
978,75	13682,00
979,18	13780,00
979,61	14170,00
980,04	14507,00
980,46	14705,00
980,89	14792,00
981,32	14844,00
981,74	14892,00
982,17	14895,00
982,60	14872,00
983,03	14921,00
983,45	14840,00
983,88	14493,00
984,31	14411,00
984,73	14326,00
985,16	14136,00
985,59	14026,00
986,02	13831,00
986,44	13755,00
986,87	13829,00
987,30	13860,00
987,72	13913,00
988,15	14237,00
988,58	14437,00
989,00	14406,00
989,43	14691,00
989,86	14904,00
990,28	15126,00
990,71	15184,00
991,14	15147,00
991,56	14926,00
991,99	14876,00
992,41	14770,00
992,84	14536,00
993,27	14351,00
993,69	13979,00
994,12	13828,00
994,55	13680,00
994,97	13611,00
995,40	13469,00
995,82	13436,00
996,25	13270,00
996,68	13305,00
997,10	13348,00
997,53	13459,00
997,95	13402,00
998,38	13483,00
998,81	13557,00
999,23	13828,00
999,66	13797,00
1000,08	13846,00
1000,51	13742,00
1000,93	13682,00
1001,36	13521,00
1001,78	13237,00
1002,21	12940,00
1002,64	12657,00
1003,06	12430,00
1003,49	12212,00
1003,91	11992,00
1004,34	11848,00
1004,76	11772,00
1005,19	11708,00
1005,61	11786,00
1006,04	11785,00
1006,46	11732,00
1006,89	11665,00
1007,31	11731,00
1007,74	11752,00
1008,16	11961,00
1008,59	11956,00
1009,01	11921,00
1009,44	11980,00
1009,86	11958,00
1010,29	12013,00
1010,71	11916,00
1011,14	11843,00
1011,56	11661,00
1011,99	11646,00
1012,41	11448,00
1012,84	11227,00
1013,26	10890,00
1013,68	10818,00
1014,11	10686,00
1014,53	10571,00
1014,96	10680,00
1015,38	10680,00
1015,81	10714,00
1016,23	10721,00
1016,65	11156,00
1017,08	10803,00
1017,50	11085,00
1017,93	11050,00
1018,35	11111,00
1018,78	11173,00
1019,20	11231,00
1019,62	11161,00
1020,05	11214,00
1020,47	11352,00
1020,90	11240,00
1021,32	11353,00
1021,74	11263,00
1022,17	11237,00
1022,59	11084,00
1023,01	10950,00
1023,44	10864,00
1023,86	10635,00
1024,28	10620,00
1024,71	10487,00
1025,13	10442,00
1025,55	10444,00
1025,98	10319,00
1026,40	10289,00
1026,82	10343,00
1027,25	10398,00
1027,67	10580,00
1028,09	10601,00
1028,52	10549,00
1028,94	10573,00
1029,36	10624,00
1029,79	10624,00
1030,21	10367,00
1030,63	10386,00
1031,06	10141,00
1031,48	10139,00
1031,90	9972,00
1032,32	9858,00
1032,75	9726,00
1033,17	9570,00
1033,59	9381,00
1034,02	9277,00
1034,44	9147,00
1034,86	9132,00
1035,28	8895,00
1035,71	8931,00
1036,13	8718,00
1036,55	8705,00
1036,97	8667,00
1037,40	8707,00
1037,82	8701,00
1038,24	8697,00
1038,66	8782,00
1039,08	8764,00
1039,51	8781,00
1039,93	8714,00
1040,35	8702,00
1040,77	8645,00
1041,19	8492,00
1041,62	8380,00
1042,04	8297,00
1042,46	8071,00
1042,88	8097,00
1043,30	7967,00
1043,73	7706,00
1044,15	7654,00
1044,57	7559,00
1044,99	7541,00
1045,41	7398,00
1045,83	7332,00
1046,26	7291,00
1046,68	7164,00
1047,10	7221,00
1047,52	7170,00
1047,94	7091,00
1048,36	7116,00
1048,78	7113,00
1049,21	7078,00
1049,63	7016,00
1050,05	7037,00
1050,47	6922,00
1050,89	6942,00
1051,31	6937,00
1051,73	6840,00
1052,15	6788,00
1052,57	6781,00
1053,00	6685,00
1053,42	6647,00
1053,84	6516,00
1054,26	6446,00
1054,68	6367,00
1055,10	6370,00
1055,52	6176,00
1055,94	6162,00
1056,36	6153,00
1056,78	5943,00
1057,20	5927,00
1057,62	5941,00
1058,04	5866,00
1058,46	5772,00
1058,88	5688,00
1059,31	5670,00
1059,73	5672,00
1060,15	5593,00
1060,57	5583,00
1060,99	5525,00
1061,41	5480,00
1061,83	5491,00
1062,25	5480,00
1062,67	5469,00
1063,09	5464,00
1063,51	5433,00
1063,93	5380,00
1064,35	5376,00
1064,77	5281,00
1065,19	5246,00
1065,61	5246,00
1066,03	5160,00
1066,45	5114,00
1066,87	5032,00
1067,28	4940,00
1067,70	4982,00
1068,12	4905,00
1068,54	4889,00
1068,96	4897,00
1069,38	4852,00
1069,80	4806,00
1070,22	4801,00
1070,64	4762,00
1071,06	4712,00
1071,48	4716,00
1071,90	4694,00
1072,32	4705,00
1072,74	4661,00
1073,16	4634,00
1073,57	4578,00
1073,99	4639,00
1074,41	4576,00
1074,83	4572,00
1075,25	4577,00
1075,67	4543,00
1076,09	4482,00
1076,51	4479,00
1076,93	4507,00
1077,34	4389,00
1077,76	4349,00
1078,18	4354,00
1078,60	4297,00
1079,02	4230,00
1079,44	4191,00
1079,86	4211,00
1080,27	4158,00
1080,69	4113,00
1081,11	4072,00
1081,53	4071,00
1081,95	4076,00
1082,37	3994,00
1082,78	4018,00
1083,20	4013,00
1083,62	4032,00
1084,04	3927,00
1084,46	3950,00
1084,87	3946,00
1085,29	3964,00
1085,71	3935,00
1086,13	4196,00
1086,55	3855,00
1086,96	3829,00
1087,38	3859,00
1087,80	3879,00
1088,22	3780,00
1088,63	3793,00
1089,05	3734,00
1089,47	3705,00
1089,89	3657,00
1090,30	3643,00
1090,72	3609,00
1091,14	3518,00
1091,56	3555,00
1091,97	3512,00
1092,39	3486,00
1092,81	3510,00
1093,23	3434,00
1093,64	3443,00
1094,06	3435,00
1094,48	3416,00
1094,89	3382,00
1095,31	3335,00
1095,73	3327,00
1096,14	3359,00
1096,56	3304,00
1096,98	3294,00
1097,39	3299,00
1097,81	3242,00
1098,23	3228,00
1098,65	3241,00
1099,06	3191,00
1099,48	3146,00
1099,89	3109,00
1100,31	3139,00
1100,73	3130,00
1101,14	3086,00
1101,56	3030,00
1101,98	3138,00
1102,39	3018,00
1102,81	3021,00
1103,23	2988,00
1103,64	2997,00
1104,06	2982,00
1104,47	2970,00
1104,89	2953,00
1105,31	2961,00
1105,72	2899,00
1106,14	2892,00
1106,55	2901,00
1106,97	2862,00
1107,39	2840,00
1107,80	2835,00
1108,22	2783,00
1108,63	2762,00
1109,05	2756,00
1109,46	2766,00
1109,88	2743,00
1110,30	2727,00
1110,71	2682,00
1111,13	2670,00
1111,54	2654,00
1111,96	2648,00
1112,37	2598,00
1112,79	2576,00
1113,20	2583,00
1113,62	2574,00
1114,03	2515,00
1114,45	2491,00
1114,86	2463,00
1115,28	2450,00
1115,69	2176,00
1116,11	2183,00
1116,52	2180,00
1116,94	2185,00
>>>>>End Processed Spectral Data<<<<<
