SpectraSuite Data File
++++++++++++++++++++++++++++++++++++
Date: Thu Jul 23 14:36:46 EEST 2020
User: CanSEE
Dark Spectrum Present: No
Reference Spectrum Present: No
Number of Sampled Component Spectra: 1
Spectrometers: MAYP112785
Integration Time (usec): 800000 (MAYP112785)
Spectra Averaged: 1 (MAYP112785)
Boxcar Smoothing: 0 (MAYP112785)
Correct for Electrical Dark: No (MAYP112785)
Strobe/Lamp Enabled: No (MAYP112785)
Correct for Detector Non-linearity: No (MAYP112785)
Correct for Stray Light: No (MAYP112785)
Number of Pixels in Processed Spectrum: 2068
>>>>>Begin Processed Spectral Data<<<<<
198.73	3429.00
199.20	2467.00
199.67	2567.00
200.14	2549.00
200.61	3037.00
201.08	3004.00
201.56	2998.00
202.03	3162.00
202.50	3057.00
202.97	3028.00
203.44	3041.00
203.91	3010.00
204.39	3037.00
204.86	3169.00
205.33	2989.00
205.80	3034.00
206.27	3061.00
206.74	3084.00
207.21	3034.00
207.69	3037.00
208.16	3021.00
208.63	3011.00
209.10	3050.00
209.57	3100.00
210.04	3123.00
210.51	3068.00
210.98	3034.00
211.46	3077.00
211.93	3093.00
212.40	3041.00
212.87	3075.00
213.34	3072.00
213.81	3057.00
214.28	3015.00
214.75	3066.00
215.23	3022.00
215.70	3005.00
216.17	3118.00
216.64	2986.00
217.11	3043.00
217.58	3035.00
218.05	3115.00
218.52	3014.00
218.99	3125.00
219.46	3017.00
219.94	3064.00
220.41	3047.00
220.88	3041.00
221.35	3154.00
221.82	3057.00
222.29	3085.00
222.76	3077.00
223.23	3024.00
223.70	3035.00
224.17	3091.00
224.64	3082.00
225.11	3042.00
225.58	3062.00
226.06	3030.00
226.53	3141.00
227.00	3074.00
227.47	3124.00
227.94	3063.00
228.41	3044.00
228.88	3068.00
229.35	3136.00
229.82	3050.00
230.29	3018.00
230.76	3102.00
231.23	3054.00
231.70	3121.00
232.17	2977.00
232.64	3037.00
233.11	3140.00
233.58	3007.00
234.05	3083.00
234.52	3073.00
235.00	3118.00
235.47	3075.00
235.94	3015.00
236.41	3041.00
236.88	3077.00
237.35	3039.00
237.82	3039.00
238.29	3077.00
238.76	3016.00
239.23	3117.00
239.70	6537.00
240.17	3010.00
240.64	3121.00
241.11	3157.00
241.58	3080.00
242.05	3048.00
242.52	3025.00
242.99	3057.00
243.46	3055.00
243.93	3087.00
244.40	3071.00
244.87	3066.00
245.34	3056.00
245.81	3836.00
246.28	3085.00
246.75	3066.00
247.22	3063.00
247.69	3079.00
248.16	3103.00
248.63	3228.00
249.10	2991.00
249.57	3087.00
250.04	3055.00
250.51	3101.00
250.98	3096.00
251.44	3063.00
251.91	3056.00
252.38	3040.00
252.85	3039.00
253.32	3042.00
253.79	3021.00
254.26	3048.00
254.73	3140.00
255.20	3122.00
255.67	3009.00
256.14	3093.00
256.61	2986.00
257.08	3103.00
257.55	3133.00
258.02	3027.00
258.49	3052.00
258.96	3078.00
259.43	3100.00
259.90	3074.00
260.36	3075.00
260.83	3073.00
261.30	3165.00
261.77	3097.00
262.24	3072.00
262.71	3046.00
263.18	3055.00
263.65	3031.00
264.12	3135.00
264.59	3054.00
265.06	3302.00
265.53	3096.00
265.99	3118.00
266.46	3040.00
266.93	2987.00
267.40	3092.00
267.87	3119.00
268.34	3063.00
268.81	3069.00
269.28	3064.00
269.75	3043.00
270.22	3084.00
270.68	3013.00
271.15	3140.00
271.62	3075.00
272.09	3097.00
272.56	3063.00
273.03	3062.00
273.50	3085.00
273.97	3045.00
274.43	3023.00
274.90	3193.00
275.37	3097.00
275.84	3033.00
276.31	3023.00
276.78	3069.00
277.25	3045.00
277.71	3017.00
278.18	3009.00
278.65	3115.00
279.12	3078.00
279.59	3087.00
280.06	3046.00
280.53	3287.00
280.99	3062.00
281.46	3108.00
281.93	3041.00
282.40	3020.00
282.87	3057.00
283.34	3085.00
283.80	3068.00
284.27	3084.00
284.74	3096.00
285.21	2998.00
285.68	3068.00
286.15	3064.00
286.61	3002.00
287.08	3083.00
287.55	3032.00
288.02	3111.00
288.49	3049.00
288.95	3067.00
289.42	3043.00
289.89	3121.00
290.36	3070.00
290.83	3064.00
291.29	3085.00
291.76	3034.00
292.23	2995.00
292.70	3075.00
293.17	3051.00
293.63	3080.00
294.10	2990.00
294.57	3052.00
295.04	3027.00
295.51	3028.00
295.97	3011.00
296.44	3097.00
296.91	3035.00
297.38	3054.00
297.84	3282.00
298.31	3011.00
298.78	3121.00
299.25	3103.00
299.71	3082.00
300.18	3041.00
300.65	3029.00
301.12	2986.00
301.58	3046.00
302.05	3152.00
302.52	3094.00
302.99	3051.00
303.45	3054.00
303.92	3114.00
304.39	3085.00
304.86	3090.00
305.32	3053.00
305.79	3025.00
306.26	3058.00
306.73	3094.00
307.19	3091.00
307.66	3046.00
308.13	3091.00
308.60	3086.00
309.06	3086.00
309.53	3073.00
310.00	3035.00
310.46	3028.00
310.93	3063.00
311.40	3043.00
311.87	3074.00
312.33	3101.00
312.80	3047.00
313.27	3065.00
313.73	3114.00
314.20	3154.00
314.67	2995.00
315.13	3097.00
315.60	3017.00
316.07	3100.00
316.53	3056.00
317.00	3117.00
317.47	3124.00
317.94	3108.00
318.40	3055.00
318.87	3046.00
319.34	3065.00
319.80	3049.00
320.27	3066.00
320.74	3062.00
321.20	3049.00
321.67	3059.00
322.14	2962.00
322.60	3042.00
323.07	3027.00
323.54	3018.00
324.00	3065.00
324.47	3082.00
324.93	3047.00
325.40	3113.00
325.87	3038.00
326.33	3045.00
326.80	3147.00
327.27	3096.00
327.73	3024.00
328.20	3083.00
328.67	3052.00
329.13	3065.00
329.60	3104.00
330.06	3068.00
330.53	3108.00
331.00	3115.00
331.46	3054.00
331.93	3054.00
332.40	3028.00
332.86	3031.00
333.33	3099.00
333.79	3013.00
334.26	3076.00
334.73	3092.00
335.19	3051.00
335.66	3132.00
336.12	3043.00
336.59	3110.00
337.06	3118.00
337.52	3035.00
337.99	3082.00
338.45	3018.00
338.92	3052.00
339.38	3035.00
339.85	3038.00
340.32	3104.00
340.78	3043.00
341.25	3093.00
341.71	3077.00
342.18	3208.00
342.64	3117.00
343.11	3100.00
343.58	3080.00
344.04	3054.00
344.51	3157.00
344.97	3041.00
345.44	3024.00
345.90	3115.00
346.37	3135.00
346.83	3046.00
347.30	3018.00
347.77	3058.00
348.23	3058.00
348.70	3054.00
349.16	3091.00
349.63	3035.00
350.09	3167.00
350.56	3008.00
351.02	3097.00
351.49	3117.00
351.95	3084.00
352.42	3117.00
352.88	3063.00
353.35	3097.00
353.81	3064.00
354.28	3034.00
354.74	3059.00
355.21	2984.00
355.67	3052.00
356.14	3205.00
356.60	3116.00
357.07	3117.00
357.53	3056.00
358.00	3073.00
358.46	3144.00
358.93	3242.00
359.39	3006.00
359.86	3314.00
360.32	3032.00
360.79	3023.00
361.25	3042.00
361.72	3093.00
362.18	3008.00
362.65	3063.00
363.11	3079.00
363.58	3289.00
364.04	3216.00
364.51	3138.00
364.97	3089.00
365.43	3032.00
365.90	2992.00
366.36	3056.00
366.83	3111.00
367.29	3097.00
367.76	3130.00
368.22	2985.00
368.69	3030.00
369.15	3071.00
369.61	3062.00
370.08	3035.00
370.54	3070.00
371.01	3090.00
371.47	3105.00
371.94	3071.00
372.40	3055.00
372.86	3110.00
373.33	3039.00
373.79	3017.00
374.26	3055.00
374.72	3055.00
375.19	3069.00
375.65	3040.00
376.11	3055.00
376.58	3087.00
377.04	3149.00
377.51	3074.00
377.97	3062.00
378.43	3064.00
378.90	3155.00
379.36	3028.00
379.82	3084.00
380.29	3130.00
380.75	3104.00
381.22	3027.00
381.68	3055.00
382.14	3073.00
382.61	3172.00
383.07	3096.00
383.53	3005.00
384.00	3051.00
384.46	3189.00
384.93	3066.00
385.39	3073.00
385.85	3059.00
386.32	3055.00
386.78	3078.00
387.24	3064.00
387.71	3112.00
388.17	3060.00
388.63	3077.00
389.10	3081.00
389.56	3446.00
390.02	3039.00
390.49	3030.00
390.95	3089.00
391.41	3057.00
391.88	3096.00
392.34	3096.00
392.80	3116.00
393.27	3133.00
393.73	3081.00
394.19	3102.00
394.66	3146.00
395.12	3084.00
395.58	3067.00
396.05	3083.00
396.51	3053.00
396.97	3123.00
397.43	3045.00
397.90	2971.00
398.36	3140.00
398.82	3039.00
399.29	3091.00
399.75	3088.00
400.21	3006.00
400.67	3098.00
401.14	3023.00
401.60	3003.00
402.06	3122.00
402.53	3060.00
402.99	3053.00
403.45	3141.00
403.91	3105.00
404.38	3132.00
404.84	3046.00
405.30	3134.00
405.76	3030.00
406.23	3109.00
406.69	3053.00
407.15	3070.00
407.61	3093.00
408.08	3053.00
408.54	3083.00
409.00	3055.00
409.46	3554.00
409.93	3118.00
410.39	3105.00
410.85	3190.00
411.31	3166.00
411.77	3078.00
412.24	3005.00
412.70	3018.00
413.16	3064.00
413.62	3005.00
414.09	3093.00
414.55	3019.00
415.01	3220.00
415.47	3010.00
415.93	3092.00
416.40	3055.00
416.86	3084.00
417.32	3009.00
417.78	3121.00
418.24	3088.00
418.71	3090.00
419.17	3052.00
419.63	3028.00
420.09	3127.00
420.55	3059.00
421.01	3159.00
421.48	3057.00
421.94	3117.00
422.40	3072.00
422.86	3097.00
423.32	3020.00
423.78	3113.00
424.25	3117.00
424.71	3027.00
425.17	3097.00
425.63	3060.00
426.09	3018.00
426.55	3062.00
427.01	3084.00
427.48	3067.00
427.94	3078.00
428.40	3042.00
428.86	3118.00
429.32	3058.00
429.78	3184.00
430.24	3126.00
430.71	3087.00
431.17	3006.00
431.63	3038.00
432.09	3104.00
432.55	3033.00
433.01	3093.00
433.47	3061.00
433.93	3055.00
434.39	3082.00
434.86	2990.00
435.32	3066.00
435.78	3047.00
436.24	3071.00
436.70	3063.00
437.16	3191.00
437.62	3029.00
438.08	3089.00
438.54	3097.00
439.00	3133.00
439.46	3060.00
439.93	3102.00
440.39	3071.00
440.85	3066.00
441.31	3082.00
441.77	3271.00
442.23	3126.00
442.69	3070.00
443.15	3074.00
443.61	3013.00
444.07	3004.00
444.53	3099.00
444.99	3080.00
445.45	3667.00
445.91	3053.00
446.37	3105.00
446.83	3098.00
447.29	3010.00
447.75	3087.00
448.21	3079.00
448.67	3090.00
449.14	3027.00
449.60	2999.00
450.06	3108.00
450.52	3064.00
450.98	3059.00
451.44	3121.00
451.90	3031.00
452.36	3062.00
452.82	3064.00
453.28	3076.00
453.74	3074.00
454.20	3035.00
454.66	3041.00
455.12	3085.00
455.58	3118.00
456.04	3057.00
456.50	3060.00
456.96	3208.00
457.42	3131.00
457.88	3073.00
458.33	3078.00
458.79	3088.00
459.25	3137.00
459.71	3077.00
460.17	3097.00
460.63	3023.00
461.09	3091.00
461.55	3043.00
462.01	3103.00
462.47	3017.00
462.93	3057.00
463.39	3086.00
463.85	3008.00
464.31	3076.00
464.77	3025.00
465.23	3051.00
465.69	3020.00
466.15	3054.00
466.61	3173.00
467.07	3068.00
467.52	3057.00
467.98	3053.00
468.44	3072.00
468.90	3113.00
469.36	3022.00
469.82	3066.00
470.28	3139.00
470.74	3100.00
471.20	3089.00
471.66	3114.00
472.12	3100.00
472.57	3023.00
473.03	3045.00
473.49	3119.00
473.95	3088.00
474.41	3029.00
474.87	3057.00
475.33	3177.00
475.79	3089.00
476.25	3040.00
476.70	3092.00
477.16	3036.00
477.62	3047.00
478.08	3118.00
478.54	3030.00
479.00	3078.00
479.46	3020.00
479.91	3089.00
480.37	3091.00
480.83	3118.00
481.29	3070.00
481.75	3049.00
482.21	3029.00
482.67	3092.00
483.12	3059.00
483.58	3045.00
484.04	3085.00
484.50	3117.00
484.96	3050.00
485.42	3201.00
485.87	3063.00
486.33	3087.00
486.79	3102.00
487.25	3102.00
487.71	3193.00
488.16	3064.00
488.62	3078.00
489.08	3129.00
489.54	3102.00
490.00	3045.00
490.45	3078.00
490.91	3018.00
491.37	3052.00
491.83	3091.00
492.29	3093.00
492.74	3181.00
493.20	3112.00
493.66	3039.00
494.12	3046.00
494.57	3087.00
495.03	3061.00
495.49	3256.00
495.95	3057.00
496.40	3088.00
496.86	3069.00
497.32	3074.00
497.78	3073.00
498.23	3076.00
498.69	3071.00
499.15	3048.00
499.61	3065.00
500.06	3038.00
500.52	3089.00
500.98	3058.00
501.44	3053.00
501.89	3186.00
502.35	3107.00
502.81	3078.00
503.27	3176.00
503.72	3302.00
504.18	3027.00
504.64	3043.00
505.09	3138.00
505.55	3070.00
506.01	3078.00
506.47	3094.00
506.92	3057.00
507.38	3051.00
507.84	3057.00
508.29	3006.00
508.75	3100.00
509.21	3070.00
509.66	3075.00
510.12	3128.00
510.58	3067.00
511.03	3238.00
511.49	3071.00
511.95	3125.00
512.40	3094.00
512.86	3094.00
513.32	3028.00
513.77	3060.00
514.23	3139.00
514.69	3073.00
515.14	3197.00
515.60	3052.00
516.06	3086.00
516.51	3103.00
516.97	3079.00
517.43	3070.00
517.88	3007.00
518.34	3058.00
518.79	3055.00
519.25	3027.00
519.71	3022.00
520.16	3069.00
520.62	3075.00
521.08	3092.00
521.53	3114.00
521.99	3079.00
522.44	3086.00
522.90	3094.00
523.36	3055.00
523.81	3108.00
524.27	2996.00
524.72	3063.00
525.18	3133.00
525.64	3054.00
526.09	3079.00
526.55	3100.00
527.00	3039.00
527.46	3043.00
527.92	3110.00
528.37	3028.00
528.83	3176.00
529.28	3074.00
529.74	3052.00
530.19	3047.00
530.65	3049.00
531.10	3093.00
531.56	3026.00
532.02	3031.00
532.47	3029.00
532.93	3080.00
533.38	3048.00
533.84	3102.00
534.29	3244.00
534.75	3060.00
535.20	3022.00
535.66	3028.00
536.11	3041.00
536.57	3088.00
537.02	3189.00
537.48	3076.00
537.93	3053.00
538.39	3064.00
538.84	3076.00
539.30	3104.00
539.75	3075.00
540.21	3057.00
540.66	3072.00
541.12	3068.00
541.57	3090.00
542.03	3039.00
542.48	3018.00
542.94	3120.00
543.39	3029.00
543.85	3060.00
544.30	3052.00
544.76	3080.00
545.21	3081.00
545.67	3511.00
546.12	3011.00
546.58	3141.00
547.03	3080.00
547.49	3132.00
547.94	3070.00
548.40	3017.00
548.85	3005.00
549.30	3049.00
549.76	3102.00
550.21	3124.00
550.67	3146.00
551.12	3105.00
551.58	3085.00
552.03	3060.00
552.48	3151.00
552.94	3051.00
553.39	3066.00
553.85	3075.00
554.30	3044.00
554.76	3137.00
555.21	3031.00
555.66	3054.00
556.12	3049.00
556.57	3107.00
557.03	3069.00
557.48	3076.00
557.93	3125.00
558.39	3108.00
558.84	3079.00
559.30	3081.00
559.75	3045.00
560.20	3109.00
560.66	3070.00
561.11	3050.00
561.56	3101.00
562.02	3061.00
562.47	3122.00
562.92	3036.00
563.38	3139.00
563.83	3043.00
564.29	3059.00
564.74	3004.00
565.19	3092.00
565.65	3054.00
566.10	3032.00
566.55	3016.00
567.01	3066.00
567.46	3340.00
567.91	3028.00
568.37	3075.00
568.82	3076.00
569.27	3041.00
569.73	3116.00
570.18	3053.00
570.63	3062.00
571.08	3126.00
571.54	3075.00
571.99	3160.00
572.44	3059.00
572.90	3138.00
573.35	3077.00
573.80	3073.00
574.26	3135.00
574.71	3107.00
575.16	3100.00
575.61	3071.00
576.07	3051.00
576.52	3082.00
576.97	3082.00
577.42	3150.00
577.88	3003.00
578.33	3083.00
578.78	3089.00
579.24	3097.00
579.69	3084.00
580.14	3092.00
580.59	3058.00
581.05	3017.00
581.50	3011.00
581.95	3120.00
582.40	3101.00
582.85	3026.00
583.31	3064.00
583.76	3221.00
584.21	3041.00
584.66	3052.00
585.12	3080.00
585.57	3043.00
586.02	3076.00
586.47	3042.00
586.92	3030.00
587.38	3082.00
587.83	3034.00
588.28	3143.00
588.73	3053.00
589.18	3019.00
589.64	3054.00
590.09	3110.00
590.54	3099.00
590.99	3007.00
591.44	3064.00
591.90	3066.00
592.35	3145.00
592.80	3026.00
593.25	3100.00
593.70	3122.00
594.15	3038.00
594.61	3115.00
595.06	3029.00
595.51	3134.00
595.96	3087.00
596.41	3028.00
596.86	3109.00
597.31	3171.00
597.77	3034.00
598.22	3083.00
598.67	3130.00
599.12	3082.00
599.57	3113.00
600.02	3091.00
600.47	3067.00
600.92	3075.00
601.38	3063.00
601.83	3106.00
602.28	3064.00
602.73	3013.00
603.18	3096.00
603.63	3145.00
604.08	3025.00
604.53	3148.00
604.98	3092.00
605.43	3163.00
605.89	3027.00
606.34	3059.00
606.79	3122.00
607.24	3041.00
607.69	3123.00
608.14	3094.00
608.59	3049.00
609.04	3055.00
609.49	3066.00
609.94	3072.00
610.39	3097.00
610.84	3040.00
611.29	3059.00
611.74	3048.00
612.19	3031.00
612.64	3126.00
613.10	3235.00
613.55	3078.00
614.00	3010.00
614.45	3099.00
614.90	3342.00
615.35	2991.00
615.80	3062.00
616.25	3072.00
616.70	3112.00
617.15	3060.00
617.60	3044.00
618.05	3043.00
618.50	3103.00
618.95	3133.00
619.40	3079.00
619.85	3105.00
620.30	3035.00
620.75	3023.00
621.20	3054.00
621.65	3055.00
622.10	3051.00
622.55	3068.00
623.00	3071.00
623.45	3079.00
623.89	3019.00
624.34	3069.00
624.79	3065.00
625.24	3070.00
625.69	3020.00
626.14	3061.00
626.59	3058.00
627.04	3227.00
627.49	3037.00
627.94	3043.00
628.39	3080.00
628.84	3032.00
629.29	3024.00
629.74	3080.00
630.19	3077.00
630.64	3034.00
631.09	3051.00
631.53	3084.00
631.98	3103.00
632.43	3034.00
632.88	3107.00
633.33	3064.00
633.78	3103.00
634.23	3054.00
634.68	3050.00
635.13	3032.00
635.58	3148.00
636.02	3094.00
636.47	3061.00
636.92	3163.00
637.37	3013.00
637.82	3092.00
638.27	3129.00
638.72	3067.00
639.16	3045.00
639.61	3074.00
640.06	3076.00
640.51	3082.00
640.96	3056.00
641.41	3089.00
641.86	3134.00
642.30	3019.00
642.75	3154.00
643.20	3060.00
643.65	3044.00
644.10	3073.00
644.55	3115.00
644.99	3079.00
645.44	3035.00
645.89	3028.00
646.34	3093.00
646.79	3069.00
647.23	3115.00
647.68	3058.00
648.13	3046.00
648.58	3081.00
649.03	3087.00
649.47	3032.00
649.92	3039.00
650.37	3080.00
650.82	3026.00
651.27	2981.00
651.71	3068.00
652.16	3057.00
652.61	3108.00
653.06	3731.00
653.50	3068.00
653.95	3050.00
654.40	3034.00
654.85	3032.00
655.29	3050.00
655.74	3190.00
656.19	3043.00
656.64	3084.00
657.08	3221.00
657.53	3069.00
657.98	3146.00
658.43	3054.00
658.87	3039.00
659.32	3126.00
659.77	3150.00
660.21	3109.00
660.66	3103.00
661.11	3094.00
661.56	3019.00
662.00	3052.00
662.45	3054.00
662.90	3074.00
663.34	3128.00
663.79	3028.00
664.24	3025.00
664.68	3040.00
665.13	3081.00
665.58	3101.00
666.02	3050.00
666.47	3041.00
666.92	3095.00
667.36	3038.00
667.81	3114.00
668.26	3120.00
668.70	3019.00
669.15	3085.00
669.60	3075.00
670.04	3117.00
670.49	3043.00
670.94	3107.00
671.38	3047.00
671.83	3072.00
672.28	3137.00
672.72	3099.00
673.17	3087.00
673.61	3030.00
674.06	3186.00
674.51	3069.00
674.95	3055.00
675.40	3089.00
675.85	3185.00
676.29	3073.00
676.74	3052.00
677.18	3020.00
677.63	3052.00
678.07	3076.00
678.52	3073.00
678.97	3067.00
679.41	3103.00
679.86	3062.00
680.30	3149.00
680.75	3088.00
681.20	3109.00
681.64	3022.00
682.09	3051.00
682.53	3046.00
682.98	3026.00
683.42	3033.00
683.87	3165.00
684.31	3086.00
684.76	3093.00
685.20	2984.00
685.65	3028.00
686.10	3005.00
686.54	3327.00
686.99	3087.00
687.43	3005.00
687.88	3041.00
688.32	3047.00
688.77	3058.00
689.21	3028.00
689.66	3041.00
690.10	3055.00
690.55	3050.00
690.99	3011.00
691.44	3088.00
691.88	3043.00
692.33	3074.00
692.77	3106.00
693.22	3048.00
693.66	3018.00
694.11	3061.00
694.55	3046.00
695.00	3135.00
695.44	3027.00
695.88	3112.00
696.33	3029.00
696.77	3091.00
697.22	3321.00
697.66	3261.00
698.11	3035.00
698.55	3077.00
699.00	3020.00
699.44	3088.00
699.88	3075.00
700.33	3089.00
700.77	3109.00
701.22	3033.00
701.66	3381.00
702.11	3113.00
702.55	3088.00
702.99	3107.00
703.44	3024.00
703.88	3089.00
704.33	3078.00
704.77	3049.00
705.21	3069.00
705.66	3013.00
706.10	3046.00
706.54	3114.00
706.99	3102.00
707.43	3046.00
707.88	3163.00
708.32	3023.00
708.76	3143.00
709.21	3064.00
709.65	3036.00
710.09	3067.00
710.54	3072.00
710.98	2975.00
711.42	3073.00
711.87	3149.00
712.31	3126.00
712.76	3072.00
713.20	3043.00
713.64	3101.00
714.08	3100.00
714.53	3062.00
714.97	3019.00
715.41	3088.00
715.86	3044.00
716.30	3085.00
716.74	3109.00
717.19	3045.00
717.63	3012.00
718.07	3139.00
718.52	3065.00
718.96	3005.00
719.40	3001.00
719.84	2990.00
720.29	3036.00
720.73	3099.00
721.17	3102.00
721.62	2983.00
722.06	3059.00
722.50	3089.00
722.94	3000.00
723.39	3017.00
723.83	3059.00
724.27	2996.00
724.71	3041.00
725.16	3063.00
725.60	3070.00
726.04	3039.00
726.48	3094.00
726.93	3144.00
727.37	3082.00
727.81	3021.00
728.25	3071.00
728.69	3116.00
729.14	3075.00
729.58	3132.00
730.02	3130.00
730.46	3072.00
730.90	3068.00
731.35	3068.00
731.79	3054.00
732.23	3041.00
732.67	3147.00
733.11	3160.00
733.56	3035.00
734.00	3130.00
734.44	3100.00
734.88	3072.00
735.32	3008.00
735.76	3145.00
736.21	3060.00
736.65	3043.00
737.09	3085.00
737.53	3080.00
737.97	3066.00
738.41	3277.00
738.85	3028.00
739.30	3075.00
739.74	3071.00
740.18	3090.00
740.62	3061.00
741.06	3080.00
741.50	3144.00
741.94	3031.00
742.38	3067.00
742.83	3137.00
743.27	3095.00
743.71	3199.00
744.15	3042.00
744.59	3133.00
745.03	3056.00
745.47	3033.00
745.91	3033.00
746.35	3048.00
746.79	3070.00
747.23	3060.00
747.68	3077.00
748.12	3111.00
748.56	3065.00
749.00	3093.00
749.44	3021.00
749.88	3076.00
750.32	3138.00
750.76	3085.00
751.20	3058.00
751.64	2995.00
752.08	3042.00
752.52	3093.00
752.96	3122.00
753.40	2994.00
753.84	3050.00
754.28	3053.00
754.72	3045.00
755.16	3053.00
755.60	3095.00
756.04	3088.00
756.48	2993.00
756.92	3069.00
757.36	3072.00
757.80	3145.00
758.24	3045.00
758.68	3085.00
759.12	3060.00
759.56	3055.00
760.00	3046.00
760.44	3087.00
760.88	3029.00
761.32	3177.00
761.76	3193.00
762.20	3110.00
762.64	3110.00
763.08	3076.00
763.52	3096.00
763.96	3098.00
764.40	3078.00
764.84	3056.00
765.28	3106.00
765.72	3100.00
766.15	3101.00
766.59	3049.00
767.03	3077.00
767.47	3337.00
767.91	3101.00
768.35	3091.00
768.79	3085.00
769.23	3158.00
769.67	3071.00
770.11	3090.00
770.55	3022.00
770.98	3024.00
771.42	3184.00
771.86	3030.00
772.30	3045.00
772.74	3091.00
773.18	3075.00
773.62	3013.00
774.06	3091.00
774.49	3053.00
774.93	3059.00
775.37	3072.00
775.81	2987.00
776.25	3095.00
776.69	3057.00
777.13	3014.00
777.56	3070.00
778.00	3249.00
778.44	3108.00
778.88	3146.00
779.32	3001.00
779.76	3017.00
780.19	3080.00
780.63	3121.00
781.07	3061.00
781.51	3079.00
781.95	3459.00
782.38	2994.00
782.82	3553.00
783.26	3000.00
783.70	3107.00
784.14	3112.00
784.57	3104.00
785.01	3068.00
785.45	3026.00
785.89	3052.00
786.32	3156.00
786.76	3065.00
787.20	3086.00
787.64	3059.00
788.07	3067.00
788.51	3088.00
788.95	3028.00
789.39	3174.00
789.82	3037.00
790.26	3144.00
790.70	3055.00
791.14	3140.00
791.57	2999.00
792.01	3071.00
792.45	3073.00
792.88	3114.00
793.32	3093.00
793.76	3029.00
794.20	3062.00
794.63	3068.00
795.07	3080.00
795.51	3092.00
795.94	3193.00
796.38	3064.00
796.82	3068.00
797.25	3138.00
797.69	3073.00
798.13	3097.00
798.56	3103.00
799.00	3054.00
799.44	3069.00
799.87	3076.00
800.31	3076.00
800.75	3051.00
801.18	3129.00
801.62	3071.00
802.06	3020.00
802.49	3043.00
802.93	3097.00
803.37	3087.00
803.80	3076.00
804.24	3028.00
804.67	3145.00
805.11	3103.00
805.55	3099.00
805.98	3090.00
806.42	3078.00
806.85	3085.00
807.29	3095.00
807.73	3071.00
808.16	3079.00
808.60	3054.00
809.03	3026.00
809.47	3057.00
809.91	3109.00
810.34	3052.00
810.78	3180.00
811.21	3016.00
811.65	3075.00
812.08	3083.00
812.52	3090.00
812.96	3028.00
813.39	3064.00
813.83	3058.00
814.26	3067.00
814.70	3123.00
815.13	3110.00
815.57	3140.00
816.00	3051.00
816.44	3073.00
816.87	3115.00
817.31	3020.00
817.74	3185.00
818.18	3055.00
818.61	3086.00
819.05	3051.00
819.48	3071.00
819.92	3165.00
820.35	3105.00
820.79	3074.00
821.22	3101.00
821.66	3093.00
822.09	3033.00
822.53	3056.00
822.96	3088.00
823.40	3080.00
823.83	3070.00
824.27	3031.00
824.70	3018.00
825.13	3089.00
825.57	3028.00
826.00	3085.00
826.44	3086.00
826.87	3079.00
827.31	3108.00
827.74	3077.00
828.17	3148.00
828.61	3028.00
829.04	3044.00
829.48	3111.00
829.91	3035.00
830.35	3036.00
830.78	3105.00
831.21	3049.00
831.65	3062.00
832.08	3103.00
832.52	3044.00
832.95	3010.00
833.38	3119.00
833.82	3072.00
834.25	3023.00
834.68	3088.00
835.12	3112.00
835.55	3345.00
835.98	3044.00
836.42	3053.00
836.85	3028.00
837.29	3011.00
837.72	3067.00
838.15	3050.00
838.59	3046.00
839.02	3115.00
839.45	3017.00
839.89	3035.00
840.32	3085.00
840.75	3041.00
841.18	3064.00
841.62	2976.00
842.05	3043.00
842.48	3233.00
842.92	3077.00
843.35	3084.00
843.78	3084.00
844.22	3040.00
844.65	3146.00
845.08	3020.00
845.51	3046.00
845.95	3098.00
846.38	3037.00
846.81	3094.00
847.24	3054.00
847.68	3069.00
848.11	3110.00
848.54	3226.00
848.97	3049.00
849.41	3134.00
849.84	3037.00
850.27	3025.00
850.70	3079.00
851.14	3087.00
851.57	3202.00
852.00	3097.00
852.43	3055.00
852.87	3041.00
853.30	3070.00
853.73	3081.00
854.16	3049.00
854.59	3161.00
855.03	3116.00
855.46	3064.00
855.89	3027.00
856.32	3037.00
856.75	3120.00
857.18	3079.00
857.62	3054.00
858.05	3113.00
858.48	3087.00
858.91	3029.00
859.34	3033.00
859.77	3069.00
860.21	3078.00
860.64	3051.00
861.07	3017.00
861.50	3048.00
861.93	3048.00
862.36	3092.00
862.79	3058.00
863.23	3201.00
863.66	3095.00
864.09	3052.00
864.52	3087.00
864.95	3115.00
865.38	3098.00
865.81	3144.00
866.24	3060.00
866.67	3158.00
867.10	3044.00
867.54	3052.00
867.97	3107.00
868.40	3044.00
868.83	3091.00
869.26	3074.00
869.69	3283.00
870.12	3000.00
870.55	3009.00
870.98	3087.00
871.41	3034.00
871.84	3108.00
872.27	3030.00
872.70	3172.00
873.13	3131.00
873.56	3255.00
873.99	3185.00
874.42	3041.00
874.85	3089.00
875.28	3030.00
875.71	3199.00
876.14	3046.00
876.57	3032.00
877.00	3054.00
877.43	3040.00
877.86	3017.00
878.29	3060.00
878.72	3060.00
879.15	3004.00
879.58	3018.00
880.01	3028.00
880.44	3197.00
880.87	3059.00
881.30	3052.00
881.73	3137.00
882.16	3221.00
882.59	3089.00
883.02	3032.00
883.45	3067.00
883.88	3057.00
884.31	3131.00
884.74	3053.00
885.17	3025.00
885.60	3182.00
886.03	3072.00
886.46	3124.00
886.88	3081.00
887.31	3042.00
887.74	3030.00
888.17	3087.00
888.60	3074.00
889.03	3109.00
889.46	3085.00
889.89	3053.00
890.32	3110.00
890.75	3059.00
891.17	3056.00
891.60	3067.00
892.03	3083.00
892.46	3056.00
892.89	3146.00
893.32	3016.00
893.75	3044.00
894.17	3060.00
894.60	3097.00
895.03	2986.00
895.46	3042.00
895.89	3082.00
896.32	3067.00
896.74	3097.00
897.17	3022.00
897.60	3044.00
898.03	2997.00
898.46	3065.00
898.89	3065.00
899.31	3062.00
899.74	3116.00
900.17	3054.00
900.60	3142.00
901.02	3043.00
901.45	3058.00
901.88	3029.00
902.31	3075.00
902.74	3064.00
903.16	3121.00
903.59	3004.00
904.02	3044.00
904.45	3069.00
904.87	3073.00
905.30	3080.00
905.73	3096.00
906.16	3336.00
906.58	3105.00
907.01	3070.00
907.44	3134.00
907.87	3080.00
908.29	3079.00
908.72	3094.00
909.15	3119.00
909.57	3098.00
910.00	3001.00
910.43	3013.00
910.86	3085.00
911.28	3258.00
911.71	3195.00
912.14	3066.00
912.56	3014.00
912.99	3122.00
913.42	3081.00
913.84	3028.00
914.27	3012.00
914.70	3115.00
915.12	3035.00
915.55	3032.00
915.98	3125.00
916.40	3101.00
916.83	3115.00
917.26	3127.00
917.68	3104.00
918.11	3069.00
918.53	2995.00
918.96	3047.00
919.39	3118.00
919.81	3073.00
920.24	3047.00
920.66	3109.00
921.09	3000.00
921.52	3093.00
921.94	3077.00
922.37	3109.00
922.79	3080.00
923.22	3109.00
923.65	3020.00
924.07	3055.00
924.50	3054.00
924.92	3266.00
925.35	3103.00
925.77	3051.00
926.20	3086.00
926.63	3162.00
927.05	3087.00
927.48	3094.00
927.90	3050.00
928.33	3138.00
928.75	2999.00
929.18	3106.00
929.60	3111.00
930.03	3059.00
930.45	3094.00
930.88	3144.00
931.30	3004.00
931.73	3050.00
932.15	3184.00
932.58	3086.00
933.00	3046.00
933.43	3051.00
933.85	3004.00
934.28	3063.00
934.70	3112.00
935.13	3093.00
935.55	3118.00
935.98	3054.00
936.40	3064.00
936.83	3076.00
937.25	3111.00
937.68	3115.00
938.10	3086.00
938.52	3113.00
938.95	3049.00
939.37	3028.00
939.80	3076.00
940.22	3308.00
940.65	3108.00
941.07	3059.00
941.49	3064.00
941.92	3032.00
942.34	3151.00
942.77	3070.00
943.19	3103.00
943.61	3003.00
944.04	3100.00
944.46	3078.00
944.89	3050.00
945.31	3038.00
945.73	3095.00
946.16	3177.00
946.58	3084.00
947.00	3031.00
947.43	3098.00
947.85	3072.00
948.27	3051.00
948.70	3083.00
949.12	3130.00
949.54	3067.00
949.97	3114.00
950.39	3115.00
950.81	3051.00
951.24	3051.00
951.66	3044.00
952.08	3085.00
952.51	3018.00
952.93	3042.00
953.35	3122.00
953.78	3105.00
954.20	2997.00
954.62	3120.00
955.04	3105.00
955.47	3106.00
955.89	3020.00
956.31	3010.00
956.74	3109.00
957.16	3065.00
957.58	3056.00
958.00	3118.00
958.43	3014.00
958.85	3044.00
959.27	2993.00
959.69	3118.00
960.12	3037.00
960.54	3092.00
960.96	3020.00
961.38	3087.00
961.80	3059.00
962.23	3072.00
962.65	3105.00
963.07	3074.00
963.49	3035.00
963.91	3117.00
964.34	3101.00
964.76	3049.00
965.18	3040.00
965.60	3032.00
966.02	3090.00
966.45	3050.00
966.87	3048.00
967.29	3207.00
967.71	3027.00
968.13	3065.00
968.55	3049.00
968.98	3034.00
969.40	3041.00
969.82	3057.00
970.24	3048.00
970.66	3051.00
971.08	3055.00
971.50	3049.00
971.92	3053.00
972.35	3052.00
972.77	3084.00
973.19	3055.00
973.61	3079.00
974.03	2969.00
974.45	3049.00
974.87	3146.00
975.29	3104.00
975.71	3096.00
976.13	3047.00
976.56	3153.00
976.98	3220.00
977.40	3083.00
977.82	3104.00
978.24	3065.00
978.66	3054.00
979.08	3093.00
979.50	3098.00
979.92	3146.00
980.34	3064.00
980.76	3158.00
981.18	3059.00
981.60	3032.00
982.02	3048.00
982.44	3045.00
982.86	3080.00
983.28	3106.00
983.70	3106.00
984.12	3041.00
984.54	3069.00
984.96	3076.00
985.38	3110.00
985.80	3022.00
986.22	3127.00
986.64	3016.00
987.06	3160.00
987.48	3065.00
987.90	3014.00
988.32	3140.00
988.74	3074.00
989.16	3282.00
989.58	3020.00
990.00	3052.00
990.42	3109.00
990.84	3043.00
991.26	3092.00
991.67	3055.00
992.09	3058.00
992.51	3045.00
992.93	3082.00
993.35	3064.00
993.77	3037.00
994.19	2982.00
994.61	2977.00
995.03	3053.00
995.45	3071.00
995.87	3049.00
996.28	3055.00
996.70	3037.00
997.12	3064.00
997.54	3004.00
997.96	3073.00
998.38	3052.00
998.80	3108.00
999.21	3038.00
999.63	3101.00
1000.05	3147.00
1000.47	3038.00
1000.89	3083.00
1001.31	3094.00
1001.72	3073.00
1002.14	3039.00
1002.56	3088.00
1002.98	3088.00
1003.40	3070.00
1003.82	3059.00
1004.23	3079.00
1004.65	3153.00
1005.07	3184.00
1005.49	3151.00
1005.90	3251.00
1006.32	3122.00
1006.74	3060.00
1007.16	3134.00
1007.58	3081.00
1007.99	3087.00
1008.41	2998.00
1008.83	3186.00
1009.25	3008.00
1009.66	3081.00
1010.08	3029.00
1010.50	3048.00
1010.92	3213.00
1011.33	3099.00
1011.75	3129.00
1012.17	3172.00
1012.58	3183.00
1013.00	3400.00
1013.42	3073.00
1013.84	3084.00
1014.25	3103.00
1014.67	3086.00
1015.09	3046.00
1015.50	3118.00
1015.92	3052.00
1016.34	3026.00
1016.75	3047.00
1017.17	3118.00
1017.59	3160.00
1018.00	3123.00
1018.42	3061.00
1018.84	3067.00
1019.25	3076.00
1019.67	3089.00
1020.09	3190.00
1020.50	3034.00
1020.92	3050.00
1021.33	3122.00
1021.75	3060.00
1022.17	3060.00
1022.58	3039.00
1023.00	3131.00
1023.42	3021.00
1023.83	3063.00
1024.25	3069.00
1024.66	3040.00
1025.08	3067.00
1025.50	3028.00
1025.91	3084.00
1026.33	3049.00
1026.74	3129.00
1027.16	3049.00
1027.57	3006.00
1027.99	3068.00
1028.40	3111.00
1028.82	3054.00
1029.24	3108.00
1029.65	3131.00
1030.07	3167.00
1030.48	3066.00
1030.90	3358.00
1031.31	3043.00
1031.73	3126.00
1032.14	3070.00
1032.56	3084.00
1032.97	3135.00
1033.39	3040.00
1033.80	3031.00
1034.22	3008.00
1034.63	3127.00
1035.05	3069.00
1035.46	3046.00
1035.88	3131.00
1036.29	3341.00
1036.71	3052.00
1037.12	3142.00
1037.54	3129.00
1037.95	3081.00
1038.36	3389.00
1038.78	3029.00
1039.19	3050.00
1039.61	3043.00
1040.02	3118.00
1040.44	3049.00
1040.85	3054.00
1041.27	3065.00
1041.68	3077.00
1042.09	3055.00
1042.51	3072.00
1042.92	3031.00
1043.34	3098.00
1043.75	3029.00
1044.16	3300.00
1044.58	3076.00
1044.99	3007.00
1045.40	3035.00
1045.82	3060.00
1046.23	3091.00
1046.65	3056.00
1047.06	3031.00
1047.47	2999.00
1047.89	3265.00
1048.30	3077.00
1048.71	3085.00
1049.13	3177.00
1049.54	3054.00
1049.95	3061.00
1050.37	3053.00
1050.78	3128.00
1051.19	3064.00
1051.61	3090.00
1052.02	3025.00
1052.43	3067.00
1052.85	3130.00
1053.26	3071.00
1053.67	3096.00
1054.08	3080.00
1054.50	3038.00
1054.91	3119.00
1055.32	3089.00
1055.74	3035.00
1056.15	3111.00
1056.56	3060.00
1056.97	3074.00
1057.39	3067.00
1057.80	3140.00
1058.21	3034.00
1058.62	3065.00
1059.03	3055.00
1059.45	3102.00
1059.86	3063.00
1060.27	3212.00
1060.68	3053.00
1061.10	3156.00
1061.51	3047.00
1061.92	3070.00
1062.33	3074.00
1062.74	3033.00
1063.16	3048.00
1063.57	3065.00
1063.98	3045.00
1064.39	3120.00
1064.80	3130.00
1065.21	3058.00
1065.63	3071.00
1066.04	3203.00
1066.45	3036.00
1066.86	3151.00
1067.27	3098.00
1067.68	3001.00
1068.10	3094.00
1068.51	3135.00
1068.92	3071.00
1069.33	3044.00
1069.74	3090.00
1070.15	3055.00
1070.56	3061.00
1070.97	3090.00
1071.38	3187.00
1071.80	3136.00
1072.21	3075.00
1072.62	3122.00
1073.03	3002.00
1073.44	3070.00
1073.85	3106.00
1074.26	3100.00
1074.67	3138.00
1075.08	3126.00
1075.49	3078.00
1075.90	2957.00
1076.31	3041.00
1076.72	3042.00
1077.13	3042.00
1077.54	3048.00
1077.95	3014.00
1078.36	3120.00
1078.77	3067.00
1079.19	3092.00
1079.60	3170.00
1080.01	3064.00
1080.42	3162.00
1080.83	2990.00
1081.24	3096.00
1081.65	3042.00
1082.05	3128.00
1082.46	3062.00
1082.87	3139.00
1083.28	3077.00
1083.69	3200.00
1084.10	3102.00
1084.51	3094.00
1084.92	3067.00
1085.33	3055.00
1085.74	2999.00
1086.15	4047.00
1086.56	3044.00
1086.97	3079.00
1087.38	3060.00
1087.79	3164.00
1088.20	3091.00
1088.61	3080.00
1089.02	3053.00
1089.42	3086.00
1089.83	3036.00
1090.24	3125.00
1090.65	3071.00
1091.06	3055.00
1091.47	3059.00
1091.88	3184.00
1092.29	3086.00
1092.70	3108.00
1093.10	3163.00
1093.51	3129.00
1093.92	3059.00
1094.33	3122.00
1094.74	3065.00
1095.15	3083.00
1095.55	3043.00
1095.96	3102.00
1096.37	3002.00
1096.78	3070.00
1097.19	3075.00
1097.60	3071.00
1098.00	3066.00
1098.41	2997.00
1098.82	3126.00
1099.23	3111.00
1099.64	3079.00
1100.04	3067.00
1100.45	3032.00
1100.86	3200.00
1101.27	3044.00
1101.67	3062.00
1102.08	3085.00
1102.49	3073.00
1102.90	3057.00
1103.31	3011.00
1103.71	3023.00
1104.12	3061.00
1104.53	3005.00
1104.93	3031.00
1105.34	3074.00
1105.75	3025.00
1106.16	3000.00
1106.56	3061.00
1106.97	2971.00
1107.38	3068.00
1107.78	3036.00
1108.19	3092.00
1108.60	3061.00
1109.01	3013.00
1109.41	3107.00
1109.82	3049.00
1110.23	3012.00
1110.63	3001.00
1111.04	3001.00
1111.45	3013.00
1111.85	3050.00
1112.26	2984.00
1112.67	3028.00
1113.07	3064.00
1113.48	2947.00
1113.88	3013.00
1114.29	2992.00
1114.70	2542.00
1115.10	2553.00
1115.51	2551.00
1115.92	2553.00
>>>>>End Processed Spectral Data<<<<<
