SpectraSuite Data File
++++++++++++++++++++++++++++++++++++
Date: Thu Aug 05 09:52:34 EEST 2021
User: CanSEE
Dark Spectrum Present: No
Reference Spectrum Present: No
Number of Sampled Component Spectra: 1
Spectrometers: MAYP112785
Integration Time (usec): 10000 (MAYP112785)
Spectra Averaged: 1 (MAYP112785)
Boxcar Smoothing: 0 (MAYP112785)
Correct for Electrical Dark: No (MAYP112785)
Strobe/Lamp Enabled: No (MAYP112785)
Correct for Detector Non-linearity: No (MAYP112785)
Correct for Stray Light: No (MAYP112785)
Number of Pixels in Processed Spectrum: 2068
>>>>>Begin Processed Spectral Data<<<<<
198.35	3433.00
198.82	2471.00
199.30	2576.00
199.77	2555.00
200.24	2580.00
200.71	2579.00
201.18	2579.00
201.65	2591.00
202.13	2578.00
202.60	2585.00
203.07	2584.00
203.54	2586.00
204.01	2582.00
204.48	2581.00
204.96	2578.00
205.43	2578.00
205.90	2575.00
206.37	2575.00
206.84	2578.00
207.31	2582.00
207.78	2583.00
208.26	2590.00
208.73	2581.00
209.20	2585.00
209.67	2590.00
210.14	2587.00
210.61	2581.00
211.08	2580.00
211.56	2577.00
212.03	2584.00
212.50	2580.00
212.97	2582.00
213.44	2586.00
213.91	2585.00
214.38	2588.00
214.85	2581.00
215.33	2571.00
215.80	2583.00
216.27	2576.00
216.74	2585.00
217.21	2577.00
217.68	2585.00
218.15	2583.00
218.62	2580.00
219.09	2576.00
219.57	2585.00
220.04	2585.00
220.51	2575.00
220.98	2583.00
221.45	2579.00
221.92	2587.00
222.39	2582.00
222.86	2582.00
223.33	2581.00
223.80	2585.00
224.27	2587.00
224.74	2576.00
225.22	2583.00
225.69	2580.00
226.16	2587.00
226.63	2582.00
227.10	2579.00
227.57	2579.00
228.04	2576.00
228.51	2580.00
228.98	2587.00
229.45	2579.00
229.92	2581.00
230.39	2588.00
230.86	2573.00
231.33	2577.00
231.80	2582.00
232.27	2579.00
232.75	2584.00
233.22	2577.00
233.69	2583.00
234.16	2584.00
234.63	2582.00
235.10	2580.00
235.57	2575.00
236.04	2581.00
236.51	2581.00
236.98	2577.00
237.45	2588.00
237.92	2577.00
238.39	2587.00
238.86	2582.00
239.33	2631.00
239.80	2581.00
240.27	2589.00
240.74	2574.00
241.21	2582.00
241.68	2577.00
242.15	2581.00
242.62	2583.00
243.09	2584.00
243.56	2580.00
244.03	2580.00
244.50	2588.00
244.97	2585.00
245.44	2594.00
245.91	2578.00
246.38	2574.00
246.85	2583.00
247.32	2584.00
247.79	2582.00
248.26	2590.00
248.73	2583.00
249.20	2579.00
249.67	2583.00
250.14	2589.00
250.61	2588.00
251.08	2579.00
251.55	2582.00
252.02	2576.00
252.49	2581.00
252.96	2580.00
253.43	2579.00
253.90	2584.00
254.37	2586.00
254.84	2583.00
255.31	2584.00
255.77	2584.00
256.24	2583.00
256.71	2582.00
257.18	2585.00
257.65	2581.00
258.12	2579.00
258.59	2584.00
259.06	2585.00
259.53	2585.00
260.00	2588.00
260.47	2583.00
260.94	2578.00
261.41	2582.00
261.88	2597.00
262.35	2578.00
262.81	2582.00
263.28	2588.00
263.75	2582.00
264.22	2581.00
264.69	2582.00
265.16	2583.00
265.63	2590.00
266.10	2579.00
266.57	2581.00
267.04	2592.00
267.51	2581.00
267.97	2584.00
268.44	2587.00
268.91	2576.00
269.38	2586.00
269.85	2577.00
270.32	2585.00
270.79	2583.00
271.26	2576.00
271.73	2584.00
272.19	2579.00
272.66	2586.00
273.13	2585.00
273.60	2588.00
274.07	2587.00
274.54	2578.00
275.01	2576.00
275.48	2580.00
275.94	2579.00
276.41	2587.00
276.88	2581.00
277.35	2585.00
277.82	2582.00
278.29	2579.00
278.76	2583.00
279.22	2585.00
279.69	2581.00
280.16	2587.00
280.63	2587.00
281.10	2587.00
281.57	2576.00
282.04	2578.00
282.50	2582.00
282.97	2584.00
283.44	2577.00
283.91	2578.00
284.38	2585.00
284.85	2585.00
285.31	2581.00
285.78	2580.00
286.25	2585.00
286.72	2576.00
287.19	2582.00
287.65	2586.00
288.12	2586.00
288.59	2585.00
289.06	2578.00
289.53	2581.00
289.99	2580.00
290.46	2588.00
290.93	2582.00
291.40	2586.00
291.87	2586.00
292.33	2582.00
292.80	2588.00
293.27	2581.00
293.74	2583.00
294.21	2584.00
294.67	2582.00
295.14	2581.00
295.61	2584.00
296.08	2581.00
296.54	2583.00
297.01	2581.00
297.48	2589.00
297.95	2580.00
298.42	2587.00
298.88	2578.00
299.35	2587.00
299.82	2579.00
300.29	2575.00
300.75	2580.00
301.22	2585.00
301.69	2587.00
302.16	2580.00
302.62	2584.00
303.09	2589.00
303.56	2588.00
304.03	2584.00
304.49	2592.00
304.96	2586.00
305.43	2586.00
305.90	2587.00
306.36	2590.00
306.83	2591.00
307.30	2586.00
307.76	2599.00
308.23	2588.00
308.70	2595.00
309.17	2596.00
309.63	2593.00
310.10	2594.00
310.57	2609.00
311.03	2611.00
311.50	2598.00
311.97	2611.00
312.44	2621.00
312.90	2618.00
313.37	2617.00
313.84	2628.00
314.30	2628.00
314.77	2632.00
315.24	2625.00
315.70	2627.00
316.17	2637.00
316.64	2627.00
317.10	2640.00
317.57	2656.00
318.04	2653.00
318.50	2646.00
318.97	2657.00
319.44	2663.00
319.90	2681.00
320.37	2678.00
320.84	2692.00
321.30	2673.00
321.77	2670.00
322.24	2671.00
322.70	2667.00
323.17	2670.00
323.64	2689.00
324.10	2696.00
324.57	2703.00
325.04	2699.00
325.50	2723.00
325.97	2733.00
326.44	2753.00
326.90	2761.00
327.37	2747.00
327.84	2747.00
328.30	2734.00
328.77	2750.00
329.23	2765.00
329.70	2790.00
330.17	2777.00
330.63	2769.00
331.10	2772.00
331.56	2780.00
332.03	2766.00
332.50	2759.00
332.96	2779.00
333.43	2774.00
333.90	2770.00
334.36	2775.00
334.83	2789.00
335.29	2797.00
335.76	2780.00
336.22	2769.00
336.69	2755.00
337.16	2760.00
337.62	2755.00
338.09	2779.00
338.55	2790.00
339.02	2797.00
339.49	2811.00
339.95	2788.00
340.42	2821.00
340.88	2842.00
341.35	2804.00
341.81	2810.00
342.28	2824.00
342.75	2815.00
343.21	2823.00
343.68	2816.00
344.14	2800.00
344.61	2784.00
345.07	2807.00
345.54	2810.00
346.00	2837.00
346.47	2841.00
346.93	2841.00
347.40	2841.00
347.87	2829.00
348.33	2840.00
348.80	2832.00
349.26	2828.00
349.73	2839.00
350.19	2866.00
350.66	2882.00
351.12	2874.00
351.59	2874.00
352.05	2867.00
352.52	2874.00
352.98	2849.00
353.45	2906.00
353.91	2917.00
354.38	2897.00
354.84	2919.00
355.31	2901.00
355.77	2880.00
356.24	2887.00
356.70	2855.00
357.17	2817.00
357.63	2854.00
358.10	2844.00
358.56	2835.00
359.03	2841.00
359.49	2871.00
359.96	2887.00
360.42	2919.00
360.89	2886.00
361.35	2879.00
361.82	2886.00
362.28	2903.00
362.75	2934.00
363.21	2925.00
363.67	2903.00
364.14	2922.00
364.60	2946.00
365.07	2930.00
365.53	2956.00
366.00	3001.00
366.46	3018.00
366.93	2972.00
367.39	2980.00
367.86	2998.00
368.32	2963.00
368.78	2979.00
369.25	2980.00
369.71	3001.00
370.18	3009.00
370.64	2990.00
371.11	2983.00
371.57	2986.00
372.03	2982.00
372.50	2976.00
372.96	2948.00
373.43	2955.00
373.89	2919.00
374.35	2938.00
374.82	2944.00
375.28	2948.00
375.75	3018.00
376.21	3047.00
376.67	3036.00
377.14	3042.00
377.60	3088.00
378.07	3111.00
378.53	3106.00
378.99	3076.00
379.46	3036.00
379.92	3005.00
380.39	3050.00
380.85	3072.00
381.31	3055.00
381.78	3011.00
382.24	2938.00
382.70	2916.00
383.17	2915.00
383.63	2922.00
384.09	2951.00
384.56	2984.00
385.02	3034.00
385.48	3047.00
385.95	3021.00
386.41	3044.00
386.88	3053.00
387.34	3033.00
387.80	3054.00
388.27	3069.00
388.73	3091.00
389.19	3112.00
389.66	3155.00
390.12	3197.00
390.58	3154.00
391.05	3208.00
391.51	3174.00
391.97	3135.00
392.43	3098.00
392.90	3054.00
393.36	2976.00
393.82	2983.00
394.29	3057.00
394.75	3129.00
395.21	3184.00
395.68	3197.00
396.14	3178.00
396.60	3102.00
397.07	3056.00
397.53	3123.00
397.99	3286.00
398.45	3373.00
398.92	3414.00
399.38	3467.00
399.84	3480.00
400.31	3522.00
400.77	3524.00
401.23	3514.00
401.69	3571.00
402.16	3555.00
402.62	3585.00
403.08	3590.00
403.54	3545.00
404.01	3570.00
404.47	3559.00
404.93	3535.00
405.39	3558.00
405.86	3564.00
406.32	3568.00
406.78	3554.00
407.24	3554.00
407.71	3597.00
408.17	3599.00
408.63	3609.00
409.09	3641.00
409.56	3657.00
410.02	3626.00
410.48	3574.00
410.94	3642.00
411.40	3687.00
411.87	3689.00
412.33	3698.00
412.79	3702.00
413.25	3698.00
413.71	3691.00
414.18	3715.00
414.64	3742.00
415.10	3685.00
415.56	3694.00
416.02	3727.00
416.49	3773.00
416.95	3755.00
417.41	3718.00
417.87	3726.00
418.33	3774.00
418.80	3762.00
419.26	3760.00
419.72	3744.00
420.18	3731.00
420.64	3795.00
421.10	3794.00
421.57	3805.00
422.03	3810.00
422.49	3763.00
422.95	3759.00
423.41	3785.00
423.87	3802.00
424.34	3821.00
424.80	3816.00
425.26	3781.00
425.72	3754.00
426.18	3807.00
426.64	3802.00
427.10	3797.00
427.57	3777.00
428.03	3733.00
428.49	3758.00
428.95	3721.00
429.41	3710.00
429.87	3652.00
430.33	3599.00
430.79	3607.00
431.26	3668.00
431.72	3790.00
432.18	3895.00
432.64	3887.00
433.10	3843.00
433.56	3910.00
434.02	3873.00
434.48	3859.00
434.94	3917.00
435.40	3973.00
435.87	4003.00
436.33	4022.00
436.79	4062.00
437.25	4035.00
437.71	3982.00
438.17	3996.00
438.63	3932.00
439.09	3975.00
439.55	4018.00
440.01	4022.00
440.47	4062.00
440.93	4063.00
441.39	4166.00
441.85	4167.00
442.32	4163.00
442.78	4201.00
443.24	4206.00
443.70	4205.00
444.16	4182.00
444.62	4198.00
445.08	4255.00
445.54	4224.00
446.00	4207.00
446.46	4201.00
446.92	4241.00
447.38	4305.00
447.84	4370.00
448.30	4333.00
448.76	4347.00
449.22	4420.00
449.68	4376.00
450.14	4379.00
450.60	4462.00
451.06	4454.00
451.52	4436.00
451.98	4381.00
452.44	4358.00
452.90	4362.00
453.36	4359.00
453.82	4383.00
454.28	4448.00
454.74	4428.00
455.20	4429.00
455.66	4439.00
456.12	4512.00
456.58	4503.00
457.04	4515.00
457.50	4521.00
457.96	4492.00
458.42	4513.00
458.88	4449.00
459.34	4519.00
459.80	4543.00
460.26	4535.00
460.72	4534.00
461.18	4539.00
461.64	4531.00
462.10	4602.00
462.55	4597.00
463.01	4563.00
463.47	4573.00
463.93	4596.00
464.39	4547.00
464.85	4534.00
465.31	4565.00
465.77	4541.00
466.23	4529.00
466.69	4563.00
467.15	4551.00
467.61	4564.00
468.07	4567.00
468.52	4555.00
468.98	4613.00
469.44	4528.00
469.90	4557.00
470.36	4545.00
470.82	4567.00
471.28	4603.00
471.74	4613.00
472.20	4622.00
472.66	4678.00
473.11	4654.00
473.57	4659.00
474.03	4661.00
474.49	4611.00
474.95	4668.00
475.41	4695.00
475.87	4668.00
476.33	4658.00
476.78	4685.00
477.24	4668.00
477.70	4739.00
478.16	4725.00
478.62	4752.00
479.08	4690.00
479.54	4769.00
479.99	4768.00
480.45	4790.00
480.91	4737.00
481.37	4779.00
481.83	4849.00
482.29	4838.00
482.74	4797.00
483.20	4766.00
483.66	4796.00
484.12	4722.00
484.58	4708.00
485.04	4645.00
485.49	4555.00
485.95	4514.00
486.41	4475.00
486.87	4495.00
487.33	4629.00
487.78	4679.00
488.24	4675.00
488.70	4784.00
489.16	4755.00
489.62	4759.00
490.07	4827.00
490.53	4787.00
490.99	4762.00
491.45	4756.00
491.90	4760.00
492.36	4740.00
492.82	4722.00
493.28	4789.00
493.74	4843.00
494.19	4867.00
494.65	4804.00
495.11	4846.00
495.57	4907.00
496.02	4895.00
496.48	4879.00
496.94	4823.00
497.40	4835.00
497.85	4848.00
498.31	4839.00
498.77	4844.00
499.23	4811.00
499.68	4847.00
500.14	4796.00
500.60	4784.00
501.06	4753.00
501.51	4700.00
501.97	4755.00
502.43	4787.00
502.88	4806.00
503.34	4821.00
503.80	4816.00
504.26	4781.00
504.71	4858.00
505.17	4815.00
505.63	4909.00
506.08	4875.00
506.54	4891.00
507.00	4882.00
507.45	4831.00
507.91	4852.00
508.37	4854.00
508.82	4897.00
509.28	4869.00
509.74	4974.00
510.19	4918.00
510.65	4862.00
511.11	4960.00
511.56	4924.00
512.02	4958.00
512.48	4927.00
512.93	4939.00
513.39	4922.00
513.85	4892.00
514.30	4871.00
514.76	4896.00
515.22	4950.00
515.67	4881.00
516.13	4807.00
516.59	4730.00
517.04	4665.00
517.50	4649.00
517.95	4691.00
518.41	4767.00
518.87	4823.00
519.32	4808.00
519.78	4865.00
520.24	4922.00
520.69	4981.00
521.15	4941.00
521.60	4960.00
522.06	4967.00
522.52	4961.00
522.97	4991.00
523.43	4958.00
523.88	4993.00
524.34	5066.00
524.80	5054.00
525.25	5058.00
525.71	5037.00
526.16	4925.00
526.62	4938.00
527.07	4888.00
527.53	4950.00
527.99	4980.00
528.44	5097.00
528.90	5096.00
529.35	5134.00
529.81	5086.00
530.26	5113.00
530.72	5144.00
531.17	5145.00
531.63	5118.00
532.09	5138.00
532.54	4998.00
533.00	5053.00
533.45	4996.00
533.91	5078.00
534.36	5081.00
534.82	5118.00
535.27	5169.00
535.73	5132.00
536.18	5178.00
536.64	5149.00
537.09	5097.00
537.55	5062.00
538.00	5062.00
538.46	5148.00
538.91	5086.00
539.37	5074.00
539.82	5082.00
540.28	5051.00
540.73	5023.00
541.19	5082.00
541.64	5105.00
542.10	5112.00
542.55	5149.00
543.01	5173.00
543.46	5099.00
543.92	5138.00
544.37	5190.00
544.83	5156.00
545.28	5187.00
545.74	5199.00
546.19	5163.00
546.64	5164.00
547.10	5133.00
547.55	5122.00
548.01	5168.00
548.46	5121.00
548.92	5119.00
549.37	5145.00
549.83	5151.00
550.28	5212.00
550.73	5179.00
551.19	5220.00
551.64	5180.00
552.10	5212.00
552.55	5184.00
553.00	5175.00
553.46	5160.00
553.91	5243.00
554.37	5239.00
554.82	5241.00
555.28	5219.00
555.73	5202.00
556.18	5225.00
556.64	5141.00
557.09	5164.00
557.54	5160.00
558.00	5166.00
558.45	5126.00
558.91	5073.00
559.36	5171.00
559.81	5087.00
560.27	5092.00
560.72	5225.00
561.17	5187.00
561.63	5212.00
562.08	5164.00
562.54	5143.00
562.99	5245.00
563.44	5203.00
563.90	5191.00
564.35	5150.00
564.80	5152.00
565.26	5174.00
565.71	5134.00
566.16	5135.00
566.62	5091.00
567.07	5144.00
567.52	5125.00
567.98	5200.00
568.43	5042.00
568.88	5151.00
569.34	5171.00
569.79	5158.00
570.24	5088.00
570.69	5026.00
571.15	5094.00
571.60	5174.00
572.05	5193.00
572.51	5179.00
572.96	5188.00
573.41	5187.00
573.86	5173.00
574.32	5129.00
574.77	5202.00
575.22	5167.00
575.68	5112.00
576.13	5125.00
576.58	5203.00
577.03	5185.00
577.49	5163.00
577.94	5146.00
578.39	5124.00
578.84	5122.00
579.30	5172.00
579.75	5193.00
580.20	5179.00
580.65	5218.00
581.11	5259.00
581.56	5260.00
582.01	5296.00
582.46	5282.00
582.92	5325.00
583.37	5298.00
583.82	5270.00
584.27	5289.00
584.72	5316.00
585.18	5237.00
585.63	5226.00
586.08	5253.00
586.53	5220.00
586.98	5270.00
587.44	5286.00
587.89	5257.00
588.34	5162.00
588.79	5009.00
589.24	4912.00
589.70	5048.00
590.15	4995.00
590.60	5099.00
591.05	5220.00
591.50	5092.00
591.96	5210.00
592.41	5181.00
592.86	5206.00
593.31	5151.00
593.76	5170.00
594.21	5175.00
594.66	5160.00
595.12	5098.00
595.57	5168.00
596.02	5190.00
596.47	5187.00
596.92	5216.00
597.37	5167.00
597.82	5197.00
598.28	5165.00
598.73	5212.00
599.18	5195.00
599.63	5239.00
600.08	5236.00
600.53	5153.00
600.98	5197.00
601.43	5153.00
601.88	5171.00
602.34	5183.00
602.79	5224.00
603.24	5190.00
603.69	5300.00
604.14	5285.00
604.59	5282.00
605.04	5270.00
605.49	5223.00
605.94	5246.00
606.39	5260.00
606.84	5221.00
607.30	5247.00
607.75	5247.00
608.20	5259.00
608.65	5285.00
609.10	5278.00
609.55	5261.00
610.00	5251.00
610.45	5194.00
610.90	5299.00
611.35	5279.00
611.80	5239.00
612.25	5210.00
612.70	5255.00
613.15	5204.00
613.60	5177.00
614.05	5274.00
614.50	5229.00
614.95	5189.00
615.40	5211.00
615.85	5241.00
616.30	5136.00
616.75	5166.00
617.20	5117.00
617.65	5198.00
618.10	5252.00
618.55	5265.00
619.00	5225.00
619.45	5235.00
619.90	5260.00
620.35	5273.00
620.80	5292.00
621.25	5289.00
621.70	5240.00
622.15	5294.00
622.60	5207.00
623.05	5223.00
623.50	5237.00
623.95	5186.00
624.40	5133.00
624.85	5181.00
625.30	5206.00
625.75	5177.00
626.20	5184.00
626.65	5265.00
627.10	5210.00
627.55	5218.00
627.99	5113.00
628.44	5097.00
628.89	5115.00
629.34	5173.00
629.79	5154.00
630.24	5158.00
630.69	5129.00
631.14	5185.00
631.59	5233.00
632.04	5221.00
632.49	5177.00
632.94	5190.00
633.38	5280.00
633.83	5199.00
634.28	5232.00
634.73	5239.00
635.18	5300.00
635.63	5296.00
636.08	5304.00
636.53	5287.00
636.97	5295.00
637.42	5307.00
637.87	5320.00
638.32	5330.00
638.77	5321.00
639.22	5327.00
639.67	5310.00
640.11	5222.00
640.56	5248.00
641.01	5315.00
641.46	5248.00
641.91	5263.00
642.36	5351.00
642.81	5324.00
643.25	5310.00
643.70	5351.00
644.15	5296.00
644.60	5289.00
645.05	5322.00
645.49	5303.00
645.94	5286.00
646.39	5236.00
646.84	5238.00
647.29	5226.00
647.73	5231.00
648.18	5197.00
648.63	5254.00
649.08	5146.00
649.53	5136.00
649.97	5173.00
650.42	5238.00
650.87	5212.00
651.32	5178.00
651.77	5243.00
652.21	5215.00
652.66	5236.00
653.11	5219.00
653.56	5257.00
654.00	5210.00
654.45	5224.00
654.90	5163.00
655.35	5088.00
655.79	5045.00
656.24	4883.00
656.69	4870.00
657.14	4990.00
657.58	5104.00
658.03	5208.00
658.48	5257.00
658.92	5236.00
659.37	5253.00
659.82	5252.00
660.27	5281.00
660.71	5274.00
661.16	5290.00
661.61	5288.00
662.05	5338.00
662.50	5343.00
662.95	5288.00
663.39	5256.00
663.84	5245.00
664.29	5270.00
664.74	5348.00
665.18	5318.00
665.63	5340.00
666.08	5286.00
666.52	5277.00
666.97	5335.00
667.42	5314.00
667.86	5272.00
668.31	5273.00
668.76	5370.00
669.20	5248.00
669.65	5301.00
670.09	5240.00
670.54	5312.00
670.99	5210.00
671.43	5246.00
671.88	5218.00
672.33	5272.00
672.77	5280.00
673.22	5264.00
673.66	5269.00
674.11	5304.00
674.56	5236.00
675.00	5314.00
675.45	5316.00
675.90	5310.00
676.34	5263.00
676.79	5305.00
677.23	5208.00
677.68	5202.00
678.12	5261.00
678.57	5300.00
679.02	5269.00
679.46	5215.00
679.91	5218.00
680.35	5263.00
680.80	5261.00
681.25	5188.00
681.69	5220.00
682.14	5207.00
682.58	5251.00
683.03	5193.00
683.47	5242.00
683.92	5179.00
684.36	5163.00
684.81	5191.00
685.25	5155.00
685.70	5108.00
686.15	5140.00
686.59	4884.00
687.04	4552.00
687.48	4364.00
687.93	4519.00
688.37	4706.00
688.82	4723.00
689.26	4713.00
689.71	4722.00
690.15	4758.00
690.60	4817.00
691.04	4839.00
691.49	4934.00
691.93	4908.00
692.38	4986.00
692.82	4969.00
693.27	4945.00
693.71	4940.00
694.16	4889.00
694.60	4850.00
695.04	4923.00
695.49	4918.00
695.93	4915.00
696.38	5000.00
696.82	5095.00
697.27	5125.00
697.71	5096.00
698.16	5007.00
698.60	4976.00
699.04	4953.00
699.49	5007.00
699.93	4943.00
700.38	4976.00
700.82	4928.00
701.27	4931.00
701.71	4944.00
702.15	4882.00
702.60	4979.00
703.04	4972.00
703.49	4957.00
703.93	4956.00
704.37	4982.00
704.82	5028.00
705.26	5031.00
705.71	5061.00
706.15	5000.00
706.59	5001.00
707.04	5027.00
707.48	4995.00
707.93	5012.00
708.37	5023.00
708.81	5025.00
709.26	5032.00
709.70	5008.00
710.14	5060.00
710.59	5041.00
711.03	5032.00
711.47	5051.00
711.92	4991.00
712.36	5039.00
712.80	5006.00
713.25	4986.00
713.69	4991.00
714.13	5009.00
714.58	4985.00
715.02	4945.00
715.46	4917.00
715.91	4908.00
716.35	4843.00
716.79	4649.00
717.24	4533.00
717.68	4438.00
718.12	4407.00
718.57	4345.00
719.01	4300.00
719.45	4265.00
719.89	4255.00
720.34	4299.00
720.78	4325.00
721.22	4549.00
721.66	4693.00
722.11	4688.00
722.55	4700.00
722.99	4659.00
723.44	4488.00
723.88	4468.00
724.32	4399.00
724.76	4429.00
725.21	4386.00
725.65	4432.00
726.09	4446.00
726.53	4463.00
726.97	4541.00
727.42	4473.00
727.86	4393.00
728.30	4465.00
728.74	4500.00
729.19	4431.00
729.63	4430.00
730.07	4493.00
730.51	4484.00
730.95	4484.00
731.40	4506.00
731.84	4587.00
732.28	4653.00
732.72	4707.00
733.16	4723.00
733.61	4759.00
734.05	4740.00
734.49	4802.00
734.93	4737.00
735.37	4769.00
735.81	4699.00
736.26	4680.00
736.70	4678.00
737.14	4690.00
737.58	4762.00
738.02	4697.00
738.46	4753.00
738.90	4661.00
739.35	4701.00
739.79	4731.00
740.23	4767.00
740.67	4733.00
741.11	4773.00
741.55	4734.00
741.99	4705.00
742.44	4770.00
742.88	4795.00
743.32	4840.00
743.76	4800.00
744.20	4796.00
744.64	4770.00
745.08	4783.00
745.52	4794.00
745.96	4819.00
746.40	4803.00
746.84	4784.00
747.29	4861.00
747.73	4795.00
748.17	4818.00
748.61	4776.00
749.05	4783.00
749.49	4772.00
749.93	4770.00
750.37	4838.00
750.81	4827.00
751.25	4793.00
751.69	4816.00
752.13	4818.00
752.57	4797.00
753.01	4807.00
753.45	4832.00
753.89	4767.00
754.33	4779.00
754.77	4852.00
755.21	4787.00
755.65	4765.00
756.09	4727.00
756.53	4827.00
756.97	4729.00
757.41	4775.00
757.85	4727.00
758.29	4754.00
758.73	4674.00
759.17	4440.00
759.61	3967.00
760.05	3335.00
760.49	2988.00
760.93	2919.00
761.37	3104.00
761.81	3480.00
762.25	3651.00
762.69	3486.00
763.13	3363.00
763.57	3363.00
764.01	3464.00
764.45	3553.00
764.89	3704.00
765.33	3879.00
765.77	4026.00
766.21	4131.00
766.65	4251.00
767.09	4381.00
767.53	4498.00
767.96	4501.00
768.40	4594.00
768.84	4544.00
769.28	4581.00
769.72	4594.00
770.16	4689.00
770.60	4708.00
771.04	4675.00
771.48	4674.00
771.92	4692.00
772.35	4731.00
772.79	4700.00
773.23	4722.00
773.67	4670.00
774.11	4733.00
774.55	4635.00
774.99	4670.00
775.43	4611.00
775.86	4660.00
776.30	4672.00
776.74	4688.00
777.18	4673.00
777.62	4708.00
778.06	4652.00
778.50	4676.00
778.93	4650.00
779.37	4622.00
779.81	4642.00
780.25	4592.00
780.69	4626.00
781.12	4641.00
781.56	4599.00
782.00	4603.00
782.44	4635.00
782.88	4618.00
783.32	4594.00
783.75	4577.00
784.19	4595.00
784.63	4605.00
785.07	4544.00
785.50	4579.00
785.94	4572.00
786.38	4528.00
786.82	4490.00
787.26	4546.00
787.69	4482.00
788.13	4529.00
788.57	4507.00
789.01	4529.00
789.44	4469.00
789.88	4449.00
790.32	4466.00
790.76	4462.00
791.19	4379.00
791.63	4386.00
792.07	4394.00
792.51	4415.00
792.94	4394.00
793.38	4427.00
793.82	4369.00
794.25	4450.00
794.69	4417.00
795.13	4453.00
795.56	4480.00
796.00	4382.00
796.44	4345.00
796.88	4388.00
797.31	4380.00
797.75	4387.00
798.19	4368.00
798.62	4402.00
799.06	4427.00
799.50	4374.00
799.93	4379.00
800.37	4393.00
800.81	4341.00
801.24	4347.00
801.68	4370.00
802.12	4379.00
802.55	4346.00
802.99	4300.00
803.43	4301.00
803.86	4348.00
804.30	4330.00
804.73	4271.00
805.17	4322.00
805.61	4346.00
806.04	4378.00
806.48	4341.00
806.92	4325.00
807.35	4267.00
807.79	4321.00
808.22	4325.00
808.66	4246.00
809.10	4332.00
809.53	4231.00
809.97	4229.00
810.40	4245.00
810.84	4199.00
811.27	4182.00
811.71	4185.00
812.15	4172.00
812.58	4123.00
813.02	4107.00
813.45	4060.00
813.89	3959.00
814.32	3963.00
814.76	3871.00
815.19	3849.00
815.63	3867.00
816.07	3813.00
816.50	3773.00
816.94	3797.00
817.37	3850.00
817.81	3819.00
818.24	3808.00
818.68	3870.00
819.11	3899.00
819.55	3893.00
819.98	3883.00
820.42	4009.00
820.85	3994.00
821.29	4026.00
821.72	4002.00
822.16	3911.00
822.59	3745.00
823.03	3619.00
823.46	3721.00
823.90	3892.00
824.33	3993.00
824.77	4066.00
825.20	4029.00
825.63	3974.00
826.07	3970.00
826.50	4059.00
826.94	4037.00
827.37	3920.00
827.81	3846.00
828.24	3854.00
828.68	3937.00
829.11	3899.00
829.54	3901.00
829.98	3928.00
830.41	3921.00
830.85	3981.00
831.28	4003.00
831.71	3941.00
832.15	3935.00
832.58	3956.00
833.02	3962.00
833.45	3960.00
833.88	3949.00
834.32	4026.00
834.75	4011.00
835.19	3975.00
835.62	4020.00
836.05	3981.00
836.49	3980.00
836.92	4035.00
837.35	4031.00
837.79	4025.00
838.22	4052.00
838.66	4047.00
839.09	4082.00
839.52	4064.00
839.96	4103.00
840.39	4058.00
840.82	4014.00
841.26	4046.00
841.69	4010.00
842.12	4022.00
842.56	4000.00
842.99	4069.00
843.42	4049.00
843.85	4034.00
844.29	4040.00
844.72	4045.00
845.15	4089.00
845.59	4122.00
846.02	4079.00
846.45	4069.00
846.88	4061.00
847.32	4046.00
847.75	4046.00
848.18	4051.00
848.62	4011.00
849.05	3990.00
849.48	3966.00
849.91	3915.00
850.35	3952.00
850.78	4019.00
851.21	4060.00
851.64	4012.00
852.08	4073.00
852.51	4058.00
852.94	4012.00
853.37	3967.00
853.80	3815.00
854.24	3725.00
854.67	3812.00
855.10	3930.00
855.53	3965.00
855.97	4030.00
856.40	3981.00
856.83	4012.00
857.26	4000.00
857.69	4025.00
858.13	4047.00
858.56	4006.00
858.99	4022.00
859.42	4014.00
859.85	4036.00
860.28	4065.00
860.72	4050.00
861.15	4008.00
861.58	4014.00
862.01	4030.00
862.44	3983.00
862.87	3985.00
863.30	3967.00
863.74	3985.00
864.17	4022.00
864.60	3990.00
865.03	3989.00
865.46	3938.00
865.89	3812.00
866.32	3797.00
866.75	3902.00
867.19	3954.00
867.62	4007.00
868.05	3981.00
868.48	3970.00
868.91	3922.00
869.34	3990.00
869.77	3944.00
870.20	3957.00
870.63	3962.00
871.06	3978.00
871.49	3934.00
871.93	3975.00
872.36	3924.00
872.79	3962.00
873.22	3963.00
873.65	3919.00
874.08	3931.00
874.51	3966.00
874.94	3929.00
875.37	3929.00
875.80	3963.00
876.23	3930.00
876.66	3930.00
877.09	3895.00
877.52	3900.00
877.95	3932.00
878.38	3882.00
878.81	3898.00
879.24	3919.00
879.67	3905.00
880.10	3874.00
880.53	3861.00
880.96	3906.00
881.39	3942.00
881.82	3915.00
882.25	3905.00
882.68	3910.00
883.11	3955.00
883.54	3936.00
883.97	3943.00
884.40	3921.00
884.83	3884.00
885.26	3895.00
885.69	3894.00
886.12	3841.00
886.55	3812.00
886.98	3877.00
887.40	3867.00
887.83	3873.00
888.26	3884.00
888.69	3903.00
889.12	3875.00
889.55	3858.00
889.98	3907.00
890.41	3912.00
890.84	3913.00
891.27	3865.00
891.70	3883.00
892.12	3842.00
892.55	3835.00
892.98	3747.00
893.41	3791.00
893.84	3748.00
894.27	3711.00
894.70	3704.00
895.13	3630.00
895.55	3667.00
895.98	3586.00
896.41	3531.00
896.84	3525.00
897.27	3555.00
897.70	3607.00
898.13	3516.00
898.55	3392.00
898.98	3399.00
899.41	3547.00
899.84	3555.00
900.27	3465.00
900.70	3448.00
901.12	3489.00
901.55	3473.00
901.98	3482.00
902.41	3495.00
902.84	3589.00
903.26	3668.00
903.69	3682.00
904.12	3687.00
904.55	3693.00
904.97	3663.00
905.40	3657.00
905.83	3563.00
906.26	3510.00
906.69	3488.00
907.11	3481.00
907.54	3475.00
907.97	3437.00
908.40	3444.00
908.82	3397.00
909.25	3427.00
909.68	3404.00
910.10	3421.00
910.53	3417.00
910.96	3496.00
911.39	3457.00
911.81	3498.00
912.24	3474.00
912.67	3350.00
913.09	3346.00
913.52	3379.00
913.95	3463.00
914.38	3483.00
914.80	3349.00
915.23	3340.00
915.66	3439.00
916.08	3482.00
916.51	3476.00
916.94	3355.00
917.36	3371.00
917.79	3427.00
918.22	3465.00
918.64	3460.00
919.07	3452.00
919.50	3511.00
919.92	3562.00
920.35	3513.00
920.78	3482.00
921.20	3456.00
921.63	3501.00
922.05	3477.00
922.48	3446.00
922.91	3462.00
923.33	3435.00
923.76	3407.00
924.18	3425.00
924.61	3455.00
925.04	3454.00
925.46	3374.00
925.89	3449.00
926.31	3435.00
926.74	3388.00
927.17	3313.00
927.59	3232.00
928.02	3231.00
928.44	3194.00
928.87	3152.00
929.29	3088.00
929.72	3071.00
930.15	3025.00
930.57	3011.00
931.00	2942.00
931.42	2905.00
931.85	2866.00
932.27	2865.00
932.70	2841.00
933.12	2784.00
933.55	2772.00
933.97	2776.00
934.40	2869.00
934.82	2825.00
935.25	2792.00
935.67	2820.00
936.10	2795.00
936.52	2760.00
936.95	2780.00
937.37	2763.00
937.80	2792.00
938.22	2868.00
938.65	2936.00
939.07	2926.00
939.50	2869.00
939.92	2851.00
940.35	2852.00
940.77	2839.00
941.19	2839.00
941.62	2847.00
942.04	2802.00
942.47	2779.00
942.89	2802.00
943.32	2763.00
943.74	2755.00
944.16	2816.00
944.59	2806.00
945.01	2769.00
945.44	2771.00
945.86	2800.00
946.29	2794.00
946.71	2828.00
947.13	2806.00
947.56	2802.00
947.98	2848.00
948.40	2868.00
948.83	2811.00
949.25	2764.00
949.68	2835.00
950.10	2917.00
950.52	2919.00
950.95	2861.00
951.37	2799.00
951.79	2811.00
952.22	2882.00
952.64	2886.00
953.06	2897.00
953.49	2891.00
953.91	2857.00
954.33	2877.00
954.76	2859.00
955.18	2894.00
955.60	2894.00
956.03	2889.00
956.45	2952.00
956.87	2996.00
957.30	2948.00
957.72	2926.00
958.14	2901.00
958.56	2902.00
958.99	2935.00
959.41	2962.00
959.83	2958.00
960.26	2999.00
960.68	3026.00
961.10	3017.00
961.52	2960.00
961.95	3003.00
962.37	3035.00
962.79	3001.00
963.21	3009.00
963.64	3037.00
964.06	3040.00
964.48	3067.00
964.90	3066.00
965.32	3039.00
965.75	3037.00
966.17	3095.00
966.59	3174.00
967.01	3150.00
967.44	3162.00
967.86	3180.00
968.28	3206.00
968.70	3191.00
969.12	3191.00
969.54	3181.00
969.97	3208.00
970.39	3198.00
970.81	3188.00
971.23	3201.00
971.65	3176.00
972.07	3202.00
972.50	3152.00
972.92	3122.00
973.34	3132.00
973.76	3137.00
974.18	3163.00
974.60	3131.00
975.02	3127.00
975.45	3093.00
975.87	3159.00
976.29	3179.00
976.71	3151.00
977.13	3173.00
977.55	3168.00
977.97	3142.00
978.39	3159.00
978.81	3197.00
979.24	3190.00
979.66	3186.00
980.08	3225.00
980.50	3198.00
980.92	3194.00
981.34	3194.00
981.76	3184.00
982.18	3221.00
982.60	3217.00
983.02	3226.00
983.44	3203.00
983.86	3214.00
984.28	3190.00
984.70	3192.00
985.12	3213.00
985.54	3185.00
985.96	3178.00
986.38	3174.00
986.80	3167.00
987.23	3195.00
987.65	3206.00
988.07	3198.00
988.49	3182.00
988.91	3217.00
989.33	3211.00
989.74	3175.00
990.16	3188.00
990.58	3179.00
991.00	3162.00
991.42	3205.00
991.84	3187.00
992.26	3187.00
992.68	3194.00
993.10	3176.00
993.52	3165.00
993.94	3165.00
994.36	3153.00
994.78	3168.00
995.20	3179.00
995.62	3180.00
996.04	3177.00
996.46	3191.00
996.88	3168.00
997.30	3221.00
997.71	3191.00
998.13	3186.00
998.55	3190.00
998.97	3180.00
999.39	3184.00
999.81	3148.00
1000.23	3160.00
1000.65	3202.00
1001.07	3163.00
1001.49	3171.00
1001.90	3173.00
1002.32	3164.00
1002.74	3160.00
1003.16	3176.00
1003.58	3136.00
1004.00	3163.00
1004.42	3160.00
1004.83	3164.00
1005.25	3173.00
1005.67	3171.00
1006.09	3150.00
1006.51	3144.00
1006.92	3150.00
1007.34	3127.00
1007.76	3125.00
1008.18	3139.00
1008.60	3159.00
1009.02	3148.00
1009.43	3166.00
1009.85	3118.00
1010.27	3148.00
1010.69	3148.00
1011.10	3150.00
1011.52	3122.00
1011.94	3124.00
1012.36	3121.00
1012.78	3092.00
1013.19	3089.00
1013.61	3101.00
1014.03	3090.00
1014.45	3077.00
1014.86	3104.00
1015.28	3068.00
1015.70	3078.00
1016.12	3076.00
1016.53	3067.00
1016.95	3075.00
1017.37	3065.00
1017.78	3052.00
1018.20	3028.00
1018.62	3019.00
1019.03	3052.00
1019.45	3044.00
1019.87	3028.00
1020.29	3040.00
1020.70	3025.00
1021.12	3043.00
1021.54	3015.00
1021.95	3013.00
1022.37	3040.00
1022.79	3010.00
1023.20	3009.00
1023.62	3004.00
1024.04	2978.00
1024.45	3013.00
1024.87	2994.00
1025.28	2985.00
1025.70	2989.00
1026.12	2989.00
1026.53	2965.00
1026.95	2968.00
1027.37	2966.00
1027.78	2974.00
1028.20	2983.00
1028.61	2950.00
1029.03	2950.00
1029.45	2937.00
1029.86	2951.00
1030.28	2921.00
1030.69	2955.00
1031.11	2928.00
1031.53	2913.00
1031.94	2944.00
1032.36	2896.00
1032.77	2928.00
1033.19	2900.00
1033.60	2891.00
1034.02	2899.00
1034.43	2894.00
1034.85	2901.00
1035.27	2896.00
1035.68	2890.00
1036.10	2913.00
1036.51	2885.00
1036.93	2888.00
1037.34	2884.00
1037.76	2880.00
1038.17	2886.00
1038.59	2872.00
1039.00	2886.00
1039.42	2859.00
1039.83	2856.00
1040.25	2879.00
1040.66	2851.00
1041.08	2866.00
1041.49	2843.00
1041.91	2855.00
1042.32	2851.00
1042.73	2830.00
1043.15	2835.00
1043.56	2817.00
1043.98	2839.00
1044.39	2834.00
1044.81	2814.00
1045.22	2815.00
1045.64	2809.00
1046.05	2805.00
1046.46	2818.00
1046.88	2806.00
1047.29	2806.00
1047.71	2811.00
1048.12	2798.00
1048.53	2792.00
1048.95	2823.00
1049.36	2786.00
1049.78	2797.00
1050.19	2785.00
1050.60	2787.00
1051.02	2787.00
1051.43	2764.00
1051.85	2785.00
1052.26	2765.00
1052.67	2761.00
1053.09	2775.00
1053.50	2772.00
1053.91	2775.00
1054.33	2770.00
1054.74	2757.00
1055.15	2743.00
1055.57	2740.00
1055.98	2749.00
1056.39	2750.00
1056.81	2747.00
1057.22	2739.00
1057.63	2754.00
1058.05	2746.00
1058.46	2742.00
1058.87	2738.00
1059.28	2730.00
1059.70	2727.00
1060.11	2737.00
1060.52	2722.00
1060.94	2709.00
1061.35	2714.00
1061.76	2730.00
1062.17	2712.00
1062.59	2704.00
1063.00	2716.00
1063.41	2704.00
1063.82	2708.00
1064.24	2711.00
1064.65	2706.00
1065.06	2698.00
1065.47	2694.00
1065.89	2696.00
1066.30	2703.00
1066.71	2702.00
1067.12	2692.00
1067.53	2689.00
1067.95	2684.00
1068.36	2693.00
1068.77	2682.00
1069.18	2686.00
1069.59	2680.00
1070.00	2685.00
1070.42	2679.00
1070.83	2683.00
1071.24	2684.00
1071.65	2681.00
1072.06	2672.00
1072.47	2668.00
1072.89	2672.00
1073.30	2669.00
1073.71	2668.00
1074.12	2671.00
1074.53	2674.00
1074.94	2665.00
1075.35	2661.00
1075.77	2666.00
1076.18	2653.00
1076.59	2668.00
1077.00	2672.00
1077.41	2665.00
1077.82	2663.00
1078.23	2657.00
1078.64	2654.00
1079.05	2641.00
1079.46	2652.00
1079.87	2656.00
1080.29	2668.00
1080.70	2640.00
1081.11	2640.00
1081.52	2645.00
1081.93	2644.00
1082.34	2641.00
1082.75	2644.00
1083.16	2637.00
1083.57	2636.00
1083.98	2650.00
1084.39	2635.00
1084.80	2640.00
1085.21	2635.00
1085.62	2624.00
1086.03	2655.00
1086.44	2627.00
1086.85	2637.00
1087.26	2628.00
1087.67	2633.00
1088.08	2636.00
1088.49	2619.00
1088.90	2627.00
1089.31	2622.00
1089.72	2629.00
1090.13	2630.00
1090.54	2620.00
1090.95	2621.00
1091.36	2627.00
1091.77	2621.00
1092.18	2617.00
1092.59	2610.00
1093.00	2615.00
1093.40	2611.00
1093.81	2618.00
1094.22	2624.00
1094.63	2605.00
1095.04	2609.00
1095.45	2608.00
1095.86	2609.00
1096.27	2601.00
1096.68	2605.00
1097.09	2607.00
1097.50	2600.00
1097.90	2602.00
1098.31	2606.00
1098.72	2599.00
1099.13	2601.00
1099.54	2607.00
1099.95	2593.00
1100.36	2601.00
1100.76	2596.00
1101.17	2593.00
1101.58	2596.00
1101.99	2601.00
1102.40	2595.00
1102.81	2593.00
1103.22	2587.00
1103.62	2590.00
1104.03	2593.00
1104.44	2598.00
1104.85	2588.00
1105.26	2589.00
1105.66	2582.00
1106.07	2588.00
1106.48	2588.00
1106.89	2587.00
1107.30	2583.00
1107.70	2590.00
1108.11	2586.00
1108.52	2585.00
1108.93	2585.00
1109.33	2581.00
1109.74	2583.00
1110.15	2592.00
1110.56	2581.00
1110.96	2582.00
1111.37	2582.00
1111.78	2580.00
1112.19	2585.00
1112.59	2588.00
1113.00	2574.00
1113.41	2588.00
1113.81	2585.00
1114.22	2577.00
1114.63	2561.00
1115.03	2552.00
1115.44	2557.00
1115.85	2555.00
>>>>>End Processed Spectral Data<<<<<
